loss,accuracy,val_loss,val_accuracy,lr
0.5849748849868774,0.6700000166893005,0.5962156057357788,0.6399999856948853,0.0010000000474974513
0.6166815161705017,0.6800000071525574,0.5946771502494812,0.6399999856948853,0.0010000000474974513
0.6463520526885986,0.6299999952316284,0.5932286381721497,0.6399999856948853,0.0010000000474974513
0.5821350812911987,0.7200000286102295,0.591833233833313,0.6399999856948853,0.0010000000474974513
0.5790311098098755,0.699999988079071,0.590359628200531,0.6399999856948853,0.0010000000474974513
0.6303072571754456,0.6299999952316284,0.5889952778816223,0.6399999856948853,0.0010000000474974513
0.5984702706336975,0.6600000262260437,0.5877025723457336,0.6399999856948853,0.0010000000474974513
0.5915706753730774,0.6800000071525574,0.5863859057426453,0.6399999856948853,0.0010000000474974513
0.5687481164932251,0.7200000286102295,0.585202693939209,0.6399999856948853,0.0010000000474974513
0.5765697360038757,0.7200000286102295,0.583890974521637,0.6499999761581421,0.0010000000474974513
0.5637630820274353,0.7400000095367432,0.5826854109764099,0.6499999761581421,0.0010000000474974513
0.5735759735107422,0.699999988079071,0.5814685225486755,0.6499999761581421,0.0010000000474974513
0.5869569182395935,0.7300000190734863,0.5802006721496582,0.6499999761581421,0.0010000000474974513
0.5701463222503662,0.7200000286102295,0.5790176391601562,0.6499999761581421,0.0010000000474974513
0.5403099656105042,0.7300000190734863,0.5778713226318359,0.6499999761581421,0.0010000000474974513
0.6044297218322754,0.7300000190734863,0.5767034292221069,0.6499999761581421,0.0010000000474974513
0.5553455948829651,0.7300000190734863,0.5755916237831116,0.6499999761581421,0.0010000000474974513
0.6231511235237122,0.7200000286102295,0.5744802951812744,0.6499999761581421,0.0010000000474974513
0.6257245540618896,0.6700000166893005,0.5733246207237244,0.6499999761581421,0.0010000000474974513
0.5863449573516846,0.7099999785423279,0.5721645951271057,0.6499999761581421,0.0010000000474974513
0.5647628903388977,0.7099999785423279,0.571077823638916,0.6499999761581421,0.0010000000474974513
0.5419754981994629,0.7300000190734863,0.5700169205665588,0.6499999761581421,0.0010000000474974513
0.5515599250793457,0.7099999785423279,0.5689918398857117,0.6499999761581421,0.0010000000474974513
0.6252953410148621,0.6600000262260437,0.5678255558013916,0.6499999761581421,0.0010000000474974513
0.5704848170280457,0.7200000286102295,0.5668060183525085,0.6499999761581421,0.0010000000474974513
0.5531302690505981,0.7300000190734863,0.5658251047134399,0.6499999761581421,0.0010000000474974513
0.564083456993103,0.7300000190734863,0.564844012260437,0.6499999761581421,0.0010000000474974513
0.5509387850761414,0.7699999809265137,0.5638637542724609,0.6499999761581421,0.0010000000474974513
0.6306036114692688,0.6899999976158142,0.5627565383911133,0.6600000262260437,0.0010000000474974513
0.561379075050354,0.7300000190734863,0.5617994666099548,0.6600000262260437,0.0010000000474974513
0.5840122699737549,0.6899999976158142,0.5608814358711243,0.6600000262260437,0.0010000000474974513
0.5574513077735901,0.7400000095367432,0.5598032474517822,0.6600000262260437,0.0010000000474974513
0.5464098453521729,0.7599999904632568,0.558765172958374,0.6600000262260437,0.0010000000474974513
0.5356650352478027,0.7200000286102295,0.5577805042266846,0.6600000262260437,0.0010000000474974513
0.555082380771637,0.7599999904632568,0.5568481683731079,0.6600000262260437,0.0010000000474974513
0.6002454161643982,0.6899999976158142,0.5558314323425293,0.6600000262260437,0.0010000000474974513
0.5422652959823608,0.6899999976158142,0.5549117922782898,0.6600000262260437,0.0010000000474974513
0.5827654004096985,0.6800000071525574,0.5540323853492737,0.6600000262260437,0.0010000000474974513
0.5950379371643066,0.699999988079071,0.5530923008918762,0.6600000262260437,0.0010000000474974513
0.5529563426971436,0.699999988079071,0.5522115230560303,0.6600000262260437,0.0010000000474974513
0.5651164054870605,0.6800000071525574,0.551301896572113,0.6600000262260437,0.0010000000474974513
0.5592737793922424,0.7099999785423279,0.5504519939422607,0.6600000262260437,0.0010000000474974513
0.5500261187553406,0.75,0.5495509505271912,0.6600000262260437,0.0010000000474974513
0.5586978793144226,0.6899999976158142,0.5487451553344727,0.6600000262260437,0.0010000000474974513
0.5831714868545532,0.6800000071525574,0.547829806804657,0.6600000262260437,0.0010000000474974513
0.577121913433075,0.6899999976158142,0.5469141602516174,0.6600000262260437,0.0010000000474974513
0.5657311677932739,0.699999988079071,0.5460605025291443,0.6700000166893005,0.0010000000474974513
0.530857264995575,0.7599999904632568,0.5452411770820618,0.6600000262260437,0.0010000000474974513
0.508857250213623,0.75,0.5444716215133667,0.6600000262260437,0.0010000000474974513
0.532898485660553,0.7400000095367432,0.5436722040176392,0.6800000071525574,0.0010000000474974513
0.5390167832374573,0.7599999904632568,0.5428686738014221,0.6800000071525574,0.0010000000474974513
0.5627046227455139,0.7099999785423279,0.542166531085968,0.6800000071525574,0.0010000000474974513
0.5701999068260193,0.7300000190734863,0.5412698984146118,0.6800000071525574,0.0010000000474974513
0.531400740146637,0.7099999785423279,0.5405114889144897,0.6800000071525574,0.0010000000474974513
0.5514224171638489,0.6899999976158142,0.5396441221237183,0.6800000071525574,0.0010000000474974513
0.504584550857544,0.7900000214576721,0.5388522148132324,0.6800000071525574,0.0010000000474974513
0.5548450946807861,0.6499999761581421,0.5380012392997742,0.6800000071525574,0.0010000000474974513
0.5771879553794861,0.6700000166893005,0.5372520685195923,0.6800000071525574,0.0010000000474974513
0.5670613050460815,0.7099999785423279,0.5363941788673401,0.6899999976158142,0.0010000000474974513
0.5527340769767761,0.699999988079071,0.5355979800224304,0.6899999976158142,0.0010000000474974513
0.5568251609802246,0.7300000190734863,0.534833550453186,0.6899999976158142,0.0010000000474974513
0.5460464954376221,0.7099999785423279,0.5341250896453857,0.6899999976158142,0.0010000000474974513
0.5579206943511963,0.7099999785423279,0.5333616137504578,0.699999988079071,0.0010000000474974513
0.5851322412490845,0.6899999976158142,0.5325345396995544,0.699999988079071,0.0010000000474974513
0.5126684904098511,0.7400000095367432,0.5318553447723389,0.699999988079071,0.0010000000474974513
0.5192262530326843,0.699999988079071,0.5311177968978882,0.7099999785423279,0.0010000000474974513
0.4952620565891266,0.7400000095367432,0.5304932594299316,0.7099999785423279,0.0010000000474974513
0.5220879316329956,0.7699999809265137,0.5298243761062622,0.7099999785423279,0.0010000000474974513
0.5493481755256653,0.7200000286102295,0.5290809273719788,0.7099999785423279,0.0010000000474974513
0.5468047857284546,0.7599999904632568,0.5284733176231384,0.7200000286102295,0.0010000000474974513
0.567871630191803,0.7200000286102295,0.5277729630470276,0.7200000286102295,0.0010000000474974513
0.5340456962585449,0.7099999785423279,0.5270131826400757,0.7300000190734863,0.0010000000474974513
0.5107342004776001,0.7599999904632568,0.5263432264328003,0.7300000190734863,0.0010000000474974513
0.5676291584968567,0.7099999785423279,0.5256314277648926,0.7300000190734863,0.0010000000474974513
0.534594714641571,0.7200000286102295,0.5249581336975098,0.7400000095367432,0.0010000000474974513
0.5503118634223938,0.7300000190734863,0.5242684483528137,0.7400000095367432,0.0010000000474974513
0.5016360282897949,0.75,0.5235921740531921,0.7400000095367432,0.0010000000474974513
0.5517646670341492,0.699999988079071,0.5229162573814392,0.7400000095367432,0.0010000000474974513
0.5311384797096252,0.7099999785423279,0.5223029851913452,0.7400000095367432,0.0010000000474974513
0.493590772151947,0.7599999904632568,0.5216519236564636,0.7400000095367432,0.0010000000474974513
0.5357019305229187,0.75,0.5210373997688293,0.7400000095367432,0.0010000000474974513
0.4832735061645508,0.7699999809265137,0.5203897953033447,0.7400000095367432,0.0010000000474974513
0.5227821469306946,0.7599999904632568,0.5197511911392212,0.7400000095367432,0.0010000000474974513
0.5388637781143188,0.7300000190734863,0.5190701484680176,0.7400000095367432,0.0010000000474974513
0.5318672060966492,0.7300000190734863,0.518477737903595,0.7400000095367432,0.0010000000474974513
0.5028462409973145,0.75,0.5177560448646545,0.7400000095367432,0.0010000000474974513
0.5046138763427734,0.7400000095367432,0.5171141624450684,0.7400000095367432,0.0010000000474974513
0.5271541476249695,0.7099999785423279,0.5164304971694946,0.7400000095367432,0.0010000000474974513
0.5339407920837402,0.7400000095367432,0.515723466873169,0.7400000095367432,0.0010000000474974513
0.539918839931488,0.7099999785423279,0.5150591731071472,0.7400000095367432,0.0010000000474974513
0.5175276398658752,0.7099999785423279,0.5143907070159912,0.7400000095367432,0.0010000000474974513
0.5429644584655762,0.7099999785423279,0.5137945413589478,0.7400000095367432,0.0010000000474974513
0.520186722278595,0.7400000095367432,0.5131915807723999,0.7400000095367432,0.0010000000474974513
0.5226585865020752,0.7300000190734863,0.5125789046287537,0.7400000095367432,0.0010000000474974513
0.4930512309074402,0.7099999785423279,0.5120024681091309,0.7400000095367432,0.0010000000474974513
0.5212819576263428,0.7200000286102295,0.5113982558250427,0.7300000190734863,0.0010000000474974513
0.4991298019886017,0.7200000286102295,0.5108075141906738,0.7400000095367432,0.0010000000474974513
0.5005698204040527,0.7799999713897705,0.510188102722168,0.7400000095367432,0.0010000000474974513
0.5150942802429199,0.7400000095367432,0.5094926357269287,0.7400000095367432,0.0010000000474974513
0.5167550444602966,0.7200000286102295,0.5088110566139221,0.7400000095367432,0.0010000000474974513
0.5085098743438721,0.7099999785423279,0.5082776546478271,0.7400000095367432,0.0010000000474974513
0.5071981549263,0.75,0.5076578855514526,0.7400000095367432,0.0010000000474974513
0.5103327631950378,0.7300000190734863,0.5070629119873047,0.7400000095367432,0.0010000000474974513
0.5100826025009155,0.7400000095367432,0.5064498782157898,0.7400000095367432,0.0010000000474974513
0.4992648959159851,0.7699999809265137,0.5058400630950928,0.7400000095367432,0.0010000000474974513
0.4795059561729431,0.7799999713897705,0.5051798224449158,0.7400000095367432,0.0010000000474974513
0.5215528607368469,0.7099999785423279,0.5045729279518127,0.7400000095367432,0.0010000000474974513
0.5408288836479187,0.6899999976158142,0.5038893818855286,0.7400000095367432,0.0010000000474974513
0.49161669611930847,0.7400000095367432,0.5032417178153992,0.7400000095367432,0.0010000000474974513
0.49178236722946167,0.7599999904632568,0.5026427507400513,0.7400000095367432,0.0010000000474974513
0.5613696575164795,0.7099999785423279,0.5020136833190918,0.7400000095367432,0.0010000000474974513
0.5253263711929321,0.7300000190734863,0.5014156699180603,0.75,0.0010000000474974513
0.5400807857513428,0.7099999785423279,0.5008530616760254,0.75,0.0010000000474974513
0.5327349305152893,0.75,0.500237762928009,0.75,0.0010000000474974513
0.5446034073829651,0.7099999785423279,0.4996708929538727,0.75,0.0010000000474974513
0.5273932814598083,0.7400000095367432,0.4990701973438263,0.75,0.0010000000474974513
0.5037490725517273,0.7599999904632568,0.4985443949699402,0.75,0.0010000000474974513
0.5254037380218506,0.7400000095367432,0.49792519211769104,0.75,0.0010000000474974513
0.4856870770454407,0.7699999809265137,0.49744656682014465,0.75,0.0010000000474974513
0.48548707365989685,0.7599999904632568,0.4968934953212738,0.75,0.0010000000474974513
0.4958913326263428,0.7300000190734863,0.4963030517101288,0.75,0.0010000000474974513
0.4984111785888672,0.7699999809265137,0.495758980512619,0.7599999904632568,0.0010000000474974513
0.5001279711723328,0.7599999904632568,0.49521389603614807,0.7599999904632568,0.0010000000474974513
0.4927832782268524,0.7400000095367432,0.4946959614753723,0.7599999904632568,0.0010000000474974513
0.5043633580207825,0.7599999904632568,0.494170218706131,0.7599999904632568,0.0010000000474974513
0.514360249042511,0.7300000190734863,0.4936332404613495,0.7599999904632568,0.0010000000474974513
0.5272471308708191,0.7200000286102295,0.4930802881717682,0.7599999904632568,0.0010000000474974513
0.5079229474067688,0.7099999785423279,0.4925347566604614,0.7599999904632568,0.0010000000474974513
0.5053699016571045,0.7599999904632568,0.4919866621494293,0.7599999904632568,0.0010000000474974513
0.532537579536438,0.7099999785423279,0.49137330055236816,0.7599999904632568,0.0010000000474974513
0.4657087028026581,0.7799999713897705,0.4908677041530609,0.7599999904632568,0.0010000000474974513
0.447914719581604,0.800000011920929,0.49038955569267273,0.7599999904632568,0.0010000000474974513
0.5039035677909851,0.75,0.4898565411567688,0.7599999904632568,0.0010000000474974513
0.4534982740879059,0.8199999928474426,0.4893892705440521,0.7599999904632568,0.0010000000474974513
0.5038943886756897,0.75,0.48883679509162903,0.7599999904632568,0.0010000000474974513
0.478624165058136,0.75,0.48831164836883545,0.7599999904632568,0.0010000000474974513
0.5261065363883972,0.75,0.48779192566871643,0.7699999809265137,0.0010000000474974513
0.5011481642723083,0.7099999785423279,0.4873701333999634,0.7699999809265137,0.0010000000474974513
0.47213292121887207,0.7599999904632568,0.4868456721305847,0.7699999809265137,0.0010000000474974513
0.5029333233833313,0.7400000095367432,0.4863010346889496,0.7699999809265137,0.0010000000474974513
0.4800524413585663,0.7599999904632568,0.4858478605747223,0.7699999809265137,0.0010000000474974513
0.49298760294914246,0.7400000095367432,0.4853316843509674,0.7699999809265137,0.0010000000474974513
0.4682270288467407,0.7400000095367432,0.48481494188308716,0.7699999809265137,0.0010000000474974513
0.48722630739212036,0.7599999904632568,0.4842168390750885,0.7699999809265137,0.0010000000474974513
0.48520249128341675,0.75,0.48381659388542175,0.7699999809265137,0.0010000000474974513
0.5134473443031311,0.7300000190734863,0.48334580659866333,0.7699999809265137,0.0010000000474974513
0.4668625295162201,0.7599999904632568,0.4828515648841858,0.7699999809265137,0.0010000000474974513
0.5045136213302612,0.699999988079071,0.4823194444179535,0.7699999809265137,0.0010000000474974513
0.5277371406555176,0.7300000190734863,0.48177963495254517,0.7699999809265137,0.0010000000474974513
0.47534576058387756,0.7699999809265137,0.481327086687088,0.7699999809265137,0.0010000000474974513
0.4729355275630951,0.800000011920929,0.48089227080345154,0.7699999809265137,0.0010000000474974513
0.5243434906005859,0.7400000095367432,0.4804101288318634,0.7699999809265137,0.0010000000474974513
0.5091282725334167,0.7400000095367432,0.4798702597618103,0.7699999809265137,0.0010000000474974513
0.49729815125465393,0.7699999809265137,0.479370653629303,0.7699999809265137,0.0010000000474974513
0.48698973655700684,0.7799999713897705,0.47882696986198425,0.7699999809265137,0.0010000000474974513
0.458760142326355,0.800000011920929,0.4783722758293152,0.7699999809265137,0.0010000000474974513
0.49446019530296326,0.7699999809265137,0.47795772552490234,0.7699999809265137,0.0010000000474974513
0.47746846079826355,0.75,0.47743216156959534,0.7699999809265137,0.0010000000474974513
0.49444466829299927,0.7599999904632568,0.47702252864837646,0.7699999809265137,0.0010000000474974513
0.5127185583114624,0.7599999904632568,0.4765566289424896,0.7699999809265137,0.0010000000474974513
0.47096121311187744,0.7599999904632568,0.476176381111145,0.7699999809265137,0.0010000000474974513
0.4641133248806,0.7599999904632568,0.4756852686405182,0.7699999809265137,0.0010000000474974513
0.48603400588035583,0.7699999809265137,0.4752100110054016,0.7699999809265137,0.0010000000474974513
0.47405654191970825,0.75,0.4747850000858307,0.7699999809265137,0.0010000000474974513
0.46115952730178833,0.7900000214576721,0.4742559790611267,0.7699999809265137,0.0010000000474974513
0.47099798917770386,0.8199999928474426,0.47384634613990784,0.7699999809265137,0.0010000000474974513
0.442874938249588,0.7900000214576721,0.4734358489513397,0.7699999809265137,0.0010000000474974513
0.46483471989631653,0.7599999904632568,0.47303420305252075,0.7699999809265137,0.0010000000474974513
0.46549713611602783,0.7599999904632568,0.47257453203201294,0.7699999809265137,0.0010000000474974513
0.4843239486217499,0.7699999809265137,0.47224175930023193,0.7699999809265137,0.0010000000474974513
0.4588196873664856,0.800000011920929,0.4718032777309418,0.7699999809265137,0.0010000000474974513
0.471110075712204,0.7599999904632568,0.47140243649482727,0.7699999809265137,0.0010000000474974513
0.4811094403266907,0.7300000190734863,0.47090041637420654,0.7699999809265137,0.0010000000474974513
0.47295165061950684,0.7699999809265137,0.47049441933631897,0.7699999809265137,0.0010000000474974513
0.49053218960762024,0.7400000095367432,0.4700184166431427,0.7699999809265137,0.0010000000474974513
0.48753026127815247,0.7900000214576721,0.46961209177970886,0.7699999809265137,0.0010000000474974513
0.4805985391139984,0.7599999904632568,0.4691604673862457,0.7699999809265137,0.0010000000474974513
0.4361877143383026,0.8100000023841858,0.4686611294746399,0.7699999809265137,0.0010000000474974513
0.4637316167354584,0.75,0.46823132038116455,0.7699999809265137,0.0010000000474974513
0.4808807671070099,0.7699999809265137,0.46784958243370056,0.7699999809265137,0.0010000000474974513
0.4669542610645294,0.7599999904632568,0.4674322009086609,0.7699999809265137,0.0010000000474974513
0.4689043164253235,0.7300000190734863,0.4669654071331024,0.7699999809265137,0.0010000000474974513
0.503682017326355,0.7400000095367432,0.4665415585041046,0.7699999809265137,0.0010000000474974513
0.45918548107147217,0.7900000214576721,0.46617454290390015,0.7699999809265137,0.0010000000474974513
0.49515342712402344,0.7799999713897705,0.46580207347869873,0.7699999809265137,0.0010000000474974513
0.45670145750045776,0.8100000023841858,0.46536850929260254,0.7599999904632568,0.0010000000474974513
0.4378797113895416,0.8199999928474426,0.4650629460811615,0.7599999904632568,0.0010000000474974513
0.44822368025779724,0.7699999809265137,0.46463143825531006,0.7599999904632568,0.0010000000474974513
0.4370991587638855,0.7799999713897705,0.4643230736255646,0.7599999904632568,0.0010000000474974513
0.45566999912261963,0.7699999809265137,0.46391257643699646,0.7599999904632568,0.0010000000474974513
0.4946707487106323,0.7599999904632568,0.46344611048698425,0.7599999904632568,0.0010000000474974513
0.48577964305877686,0.75,0.46304625272750854,0.7599999904632568,0.0010000000474974513
0.4402596354484558,0.800000011920929,0.4626356363296509,0.7599999904632568,0.0010000000474974513
0.46506059169769287,0.800000011920929,0.4622265696525574,0.7599999904632568,0.0010000000474974513
0.4507659673690796,0.7599999904632568,0.4618653357028961,0.7599999904632568,0.0010000000474974513
0.41785305738449097,0.800000011920929,0.4614098072052002,0.7599999904632568,0.0010000000474974513
0.4568149447441101,0.7599999904632568,0.4610162377357483,0.7599999904632568,0.0010000000474974513
0.48697537183761597,0.7400000095367432,0.46062225103378296,0.7599999904632568,0.0010000000474974513
0.5083045363426208,0.7300000190734863,0.46025463938713074,0.7599999904632568,0.0010000000474974513
0.46552756428718567,0.75,0.4597983658313751,0.7599999904632568,0.0010000000474974513
0.46336135268211365,0.7599999904632568,0.45941534638404846,0.7599999904632568,0.0010000000474974513
0.4394528865814209,0.7400000095367432,0.45898109674453735,0.7599999904632568,0.0010000000474974513
0.4754531979560852,0.75,0.4585687220096588,0.75,0.0010000000474974513
0.45650994777679443,0.7699999809265137,0.45817384123802185,0.7599999904632568,0.0010000000474974513
0.4311597943305969,0.7900000214576721,0.45781460404396057,0.7599999904632568,0.0010000000474974513
0.4584888219833374,0.7599999904632568,0.4574766159057617,0.7599999904632568,0.0010000000474974513
0.470615416765213,0.7900000214576721,0.4570998251438141,0.7599999904632568,0.0010000000474974513
0.48397013545036316,0.7699999809265137,0.4567773938179016,0.7599999904632568,0.0010000000474974513
0.44773754477500916,0.7699999809265137,0.4563486874103546,0.7599999904632568,0.0010000000474974513
0.4479313790798187,0.7799999713897705,0.4559856057167053,0.7599999904632568,0.0010000000474974513
0.4694821834564209,0.7599999904632568,0.45566514134407043,0.7599999904632568,0.0010000000474974513
0.4735305905342102,0.7599999904632568,0.4552936553955078,0.7599999904632568,0.0010000000474974513
0.4791645407676697,0.800000011920929,0.4549482464790344,0.7599999904632568,0.0010000000474974513
0.42427387833595276,0.800000011920929,0.45464783906936646,0.7599999904632568,0.0010000000474974513
0.44719162583351135,0.7799999713897705,0.4542771875858307,0.7599999904632568,0.0010000000474974513
0.47464367747306824,0.75,0.4539278447628021,0.7599999904632568,0.0010000000474974513
0.46746358275413513,0.75,0.4535450041294098,0.7599999904632568,0.0010000000474974513
0.4410199224948883,0.8100000023841858,0.45319676399230957,0.7599999904632568,0.0010000000474974513
0.45784756541252136,0.7699999809265137,0.45288777351379395,0.7599999904632568,0.0010000000474974513
0.4433082938194275,0.7799999713897705,0.45254382491111755,0.7599999904632568,0.0010000000474974513
0.440420925617218,0.7699999809265137,0.45216435194015503,0.7599999904632568,0.0010000000474974513
0.4365682899951935,0.7900000214576721,0.4517849087715149,0.7699999809265137,0.0010000000474974513
0.4633884131908417,0.800000011920929,0.4514235258102417,0.7699999809265137,0.0010000000474974513
0.47305193543434143,0.7799999713897705,0.45115402340888977,0.7699999809265137,0.0010000000474974513
0.4202370047569275,0.8100000023841858,0.45083513855934143,0.7699999809265137,0.0010000000474974513
0.4347803592681885,0.7900000214576721,0.45055100321769714,0.7699999809265137,0.0010000000474974513
0.44994068145751953,0.7900000214576721,0.45018109679222107,0.7699999809265137,0.0010000000474974513
0.4135487675666809,0.8100000023841858,0.44978219270706177,0.7699999809265137,0.0010000000474974513
0.4337617754936218,0.8100000023841858,0.44946128129959106,0.7699999809265137,0.0010000000474974513
0.4465491771697998,0.7900000214576721,0.44908103346824646,0.7699999809265137,0.0010000000474974513
0.41961079835891724,0.7799999713897705,0.4486837089061737,0.7699999809265137,0.0010000000474974513
0.4327874779701233,0.8199999928474426,0.4483640193939209,0.7699999809265137,0.0010000000474974513
0.4282149374485016,0.7799999713897705,0.4480877220630646,0.7699999809265137,0.0010000000474974513
0.4403015971183777,0.8199999928474426,0.4477485418319702,0.7799999713897705,0.0010000000474974513
0.4666064381599426,0.800000011920929,0.4473867416381836,0.7799999713897705,0.0010000000474974513
0.46082738041877747,0.7699999809265137,0.44705718755722046,0.7799999713897705,0.0010000000474974513
0.43186238408088684,0.8199999928474426,0.4467558264732361,0.7799999713897705,0.0010000000474974513
0.4652005732059479,0.7699999809265137,0.44645678997039795,0.7799999713897705,0.0010000000474974513
0.4363096356391907,0.8199999928474426,0.44612690806388855,0.7799999713897705,0.0010000000474974513
0.41680216789245605,0.800000011920929,0.4458664655685425,0.7799999713897705,0.0010000000474974513
0.4518589377403259,0.75,0.4454433023929596,0.7799999713897705,0.0010000000474974513
0.4788267910480499,0.75,0.4451116919517517,0.7799999713897705,0.0010000000474974513
0.4096823036670685,0.8199999928474426,0.4448429346084595,0.7799999713897705,0.0010000000474974513
0.44634559750556946,0.7400000095367432,0.4444993734359741,0.7799999713897705,0.0010000000474974513
0.4292107820510864,0.8100000023841858,0.4441741108894348,0.7799999713897705,0.0010000000474974513
0.42612048983573914,0.8100000023841858,0.44380828738212585,0.7799999713897705,0.0010000000474974513
0.4241348206996918,0.8199999928474426,0.443552702665329,0.7799999713897705,0.0010000000474974513
0.4360252022743225,0.7599999904632568,0.4431942105293274,0.7799999713897705,0.0010000000474974513
0.4233964681625366,0.8199999928474426,0.44290587306022644,0.7799999713897705,0.0010000000474974513
0.4562564492225647,0.7599999904632568,0.4426596164703369,0.7799999713897705,0.0010000000474974513
0.4059607684612274,0.7900000214576721,0.4424017667770386,0.7799999713897705,0.0010000000474974513
0.4575931429862976,0.7900000214576721,0.44210341572761536,0.7799999713897705,0.0010000000474974513
0.4453490078449249,0.8100000023841858,0.4418483078479767,0.7799999713897705,0.0010000000474974513
0.4627823233604431,0.75,0.4415821135044098,0.7799999713897705,0.0010000000474974513
0.4339050352573395,0.7900000214576721,0.4413529634475708,0.7799999713897705,0.0010000000474974513
0.46309033036231995,0.7799999713897705,0.44107359647750854,0.7799999713897705,0.0010000000474974513
0.423458456993103,0.75,0.44077202677726746,0.7799999713897705,0.0010000000474974513
0.43960562348365784,0.7699999809265137,0.4404922425746918,0.7799999713897705,0.0010000000474974513
0.43471264839172363,0.7699999809265137,0.44023093581199646,0.7799999713897705,0.0010000000474974513
0.47227713465690613,0.7300000190734863,0.43995240330696106,0.7799999713897705,0.0010000000474974513
0.46369674801826477,0.7300000190734863,0.43972301483154297,0.7799999713897705,0.0010000000474974513
0.43006274104118347,0.7699999809265137,0.4394165873527527,0.7799999713897705,0.0010000000474974513
0.40848568081855774,0.7900000214576721,0.43914398550987244,0.7699999809265137,0.0010000000474974513
0.44346463680267334,0.8100000023841858,0.43898382782936096,0.7799999713897705,0.0010000000474974513
0.4547406733036041,0.7699999809265137,0.4387364685535431,0.7699999809265137,0.0010000000474974513
0.4266522526741028,0.8199999928474426,0.438466340303421,0.7699999809265137,0.0010000000474974513
0.4404861032962799,0.8199999928474426,0.4382103681564331,0.7799999713897705,0.0010000000474974513
0.42327645421028137,0.7900000214576721,0.43785589933395386,0.7799999713897705,0.0010000000474974513
0.4245588779449463,0.8100000023841858,0.43757399916648865,0.7799999713897705,0.0010000000474974513
0.442994087934494,0.7799999713897705,0.43728065490722656,0.7799999713897705,0.0010000000474974513
0.4047796130180359,0.800000011920929,0.4370824098587036,0.7799999713897705,0.0010000000474974513
0.39899522066116333,0.7900000214576721,0.4368215799331665,0.7799999713897705,0.0010000000474974513
0.43934565782546997,0.7400000095367432,0.4364652633666992,0.7799999713897705,0.0010000000474974513
0.42551136016845703,0.7799999713897705,0.4362652897834778,0.7799999713897705,0.0010000000474974513
0.44411858916282654,0.7799999713897705,0.43603625893592834,0.7799999713897705,0.0010000000474974513
0.4310151934623718,0.800000011920929,0.435802161693573,0.7799999713897705,0.0010000000474974513
0.41297513246536255,0.8199999928474426,0.43554627895355225,0.7799999713897705,0.0010000000474974513
0.44437628984451294,0.7699999809265137,0.4352687895298004,0.7799999713897705,0.0010000000474974513
0.4337451457977295,0.7900000214576721,0.435017853975296,0.7799999713897705,0.0010000000474974513
0.43131378293037415,0.7900000214576721,0.4347172677516937,0.7799999713897705,0.0010000000474974513
0.4276769757270813,0.800000011920929,0.4345848560333252,0.7799999713897705,0.0010000000474974513
0.42487746477127075,0.7799999713897705,0.4342958331108093,0.7799999713897705,0.0010000000474974513
0.4034276604652405,0.8199999928474426,0.43407920002937317,0.7799999713897705,0.0010000000474974513
0.456374853849411,0.800000011920929,0.43380269408226013,0.7799999713897705,0.0010000000474974513
0.46934807300567627,0.7799999713897705,0.4335858225822449,0.7799999713897705,0.0010000000474974513
0.423934668302536,0.8199999928474426,0.4333305060863495,0.7799999713897705,0.0010000000474974513
0.392852783203125,0.8299999833106995,0.43309372663497925,0.7799999713897705,0.0010000000474974513
0.4503917694091797,0.7799999713897705,0.43283507227897644,0.7799999713897705,0.0010000000474974513
0.4341976046562195,0.7699999809265137,0.43260711431503296,0.7799999713897705,0.0010000000474974513
0.4161582291126251,0.8299999833106995,0.4324263632297516,0.7799999713897705,0.0010000000474974513
0.42363476753234863,0.7599999904632568,0.43213844299316406,0.7799999713897705,0.0010000000474974513
0.44930189847946167,0.7799999713897705,0.431907057762146,0.7799999713897705,0.0010000000474974513
0.4667285680770874,0.7900000214576721,0.4316658079624176,0.7799999713897705,0.0010000000474974513
0.42982250452041626,0.7699999809265137,0.43141400814056396,0.7799999713897705,0.0010000000474974513
0.4063192307949066,0.8199999928474426,0.4311566948890686,0.7799999713897705,0.0010000000474974513
0.4308170974254608,0.800000011920929,0.43086445331573486,0.7799999713897705,0.0010000000474974513
0.4416017532348633,0.7599999904632568,0.4306483864784241,0.7799999713897705,0.0010000000474974513
0.42134588956832886,0.8399999737739563,0.43042442202568054,0.7799999713897705,0.0010000000474974513
0.4189991354942322,0.7900000214576721,0.4301823675632477,0.7799999713897705,0.0010000000474974513
0.4333464801311493,0.800000011920929,0.429939866065979,0.7799999713897705,0.0010000000474974513
0.40375056862831116,0.8199999928474426,0.42970630526542664,0.7799999713897705,0.0010000000474974513
0.4077666401863098,0.8299999833106995,0.42941147089004517,0.7799999713897705,0.0010000000474974513
0.4061032831668854,0.8299999833106995,0.42920196056365967,0.7799999713897705,0.0010000000474974513
0.44273513555526733,0.7900000214576721,0.4290158748626709,0.7799999713897705,0.0010000000474974513
0.4181605577468872,0.7900000214576721,0.4287819564342499,0.7799999713897705,0.0010000000474974513
0.4228239357471466,0.7599999904632568,0.4285399615764618,0.7799999713897705,0.0010000000474974513
0.40737563371658325,0.8199999928474426,0.4282619059085846,0.7799999713897705,0.0010000000474974513
0.39895957708358765,0.8399999737739563,0.4280565679073334,0.7799999713897705,0.0010000000474974513
0.41696053743362427,0.7900000214576721,0.4278860092163086,0.7799999713897705,0.0010000000474974513
0.4037102460861206,0.8100000023841858,0.4276319444179535,0.7799999713897705,0.0010000000474974513
0.38126763701438904,0.8299999833106995,0.427425354719162,0.7799999713897705,0.0010000000474974513
0.4517938494682312,0.7799999713897705,0.42719241976737976,0.7799999713897705,0.0010000000474974513
0.4286189377307892,0.8199999928474426,0.4269404113292694,0.7900000214576721,0.0010000000474974513
0.4539376199245453,0.800000011920929,0.426697701215744,0.7900000214576721,0.0010000000474974513
0.45331713557243347,0.7599999904632568,0.4264674484729767,0.7900000214576721,0.0010000000474974513
0.4362921416759491,0.8100000023841858,0.4263261556625366,0.7900000214576721,0.0010000000474974513
0.3898083567619324,0.8799999952316284,0.42609286308288574,0.7900000214576721,0.0010000000474974513
0.41621002554893494,0.8399999737739563,0.4258415699005127,0.7900000214576721,0.0010000000474974513
0.41649773716926575,0.7699999809265137,0.4256218373775482,0.7900000214576721,0.0010000000474974513
0.41060730814933777,0.8100000023841858,0.42541012167930603,0.7900000214576721,0.0010000000474974513
0.41363611817359924,0.7900000214576721,0.42513754963874817,0.7900000214576721,0.0010000000474974513
0.4008702337741852,0.8199999928474426,0.42493003606796265,0.7900000214576721,0.0010000000474974513
0.41269809007644653,0.7900000214576721,0.4247511625289917,0.7900000214576721,0.0010000000474974513
0.4104321300983429,0.800000011920929,0.42452821135520935,0.7900000214576721,0.0010000000474974513
0.3958074152469635,0.8100000023841858,0.4243963956832886,0.7900000214576721,0.0010000000474974513
0.40524664521217346,0.8399999737739563,0.42420655488967896,0.7900000214576721,0.0010000000474974513
0.430495023727417,0.7799999713897705,0.4240063428878784,0.7900000214576721,0.0010000000474974513
0.41223037242889404,0.8100000023841858,0.4238048195838928,0.7900000214576721,0.0010000000474974513
0.412875771522522,0.800000011920929,0.4236864745616913,0.7900000214576721,0.0010000000474974513
0.4267622232437134,0.8100000023841858,0.42352494597435,0.7900000214576721,0.0010000000474974513
0.4272943139076233,0.8100000023841858,0.42331477999687195,0.7900000214576721,0.0010000000474974513
0.3935854434967041,0.7900000214576721,0.4231397211551666,0.7900000214576721,0.0010000000474974513
0.39536815881729126,0.7900000214576721,0.4229205250740051,0.7900000214576721,0.0010000000474974513
0.41574588418006897,0.7599999904632568,0.42268866300582886,0.7900000214576721,0.0010000000474974513
0.4202682077884674,0.7900000214576721,0.4225132465362549,0.7900000214576721,0.0010000000474974513
0.4217160940170288,0.8199999928474426,0.4223661720752716,0.7900000214576721,0.0010000000474974513
0.40819522738456726,0.800000011920929,0.4221462309360504,0.7900000214576721,0.0010000000474974513
0.3976461887359619,0.800000011920929,0.4218897223472595,0.7900000214576721,0.0010000000474974513
0.4084261357784271,0.7699999809265137,0.4216832220554352,0.7900000214576721,0.0010000000474974513
0.43856629729270935,0.7599999904632568,0.42144975066185,0.7900000214576721,0.0010000000474974513
0.42224830389022827,0.7799999713897705,0.42124131321907043,0.7900000214576721,0.0010000000474974513
0.41791999340057373,0.7900000214576721,0.42103084921836853,0.7900000214576721,0.0010000000474974513
0.36966627836227417,0.8199999928474426,0.4208536148071289,0.7900000214576721,0.0010000000474974513
0.39748549461364746,0.7799999713897705,0.4206393361091614,0.7900000214576721,0.0010000000474974513
0.4199480414390564,0.7900000214576721,0.4204777479171753,0.7900000214576721,0.0010000000474974513
0.4201972186565399,0.800000011920929,0.4202738106250763,0.7900000214576721,0.0010000000474974513
0.42644962668418884,0.75,0.42002785205841064,0.7900000214576721,0.0010000000474974513
0.3964677155017853,0.8199999928474426,0.4198320806026459,0.7900000214576721,0.0010000000474974513
0.3975086212158203,0.8500000238418579,0.4197166860103607,0.7900000214576721,0.0010000000474974513
0.41538405418395996,0.8100000023841858,0.41956961154937744,0.7900000214576721,0.0010000000474974513
0.4046398103237152,0.7900000214576721,0.41935521364212036,0.7900000214576721,0.0010000000474974513
0.41436073184013367,0.8100000023841858,0.4192125201225281,0.7900000214576721,0.0010000000474974513
0.4100741147994995,0.8299999833106995,0.4189883768558502,0.7900000214576721,0.0010000000474974513
0.43607643246650696,0.7900000214576721,0.4188094437122345,0.800000011920929,0.0010000000474974513
0.4083811044692993,0.8500000238418579,0.4186183512210846,0.800000011920929,0.0010000000474974513
0.4367811977863312,0.800000011920929,0.41846388578414917,0.800000011920929,0.0010000000474974513
0.3975694179534912,0.8100000023841858,0.4182920753955841,0.800000011920929,0.0010000000474974513
0.39487704634666443,0.8199999928474426,0.41817381978034973,0.800000011920929,0.0010000000474974513
0.4130176305770874,0.800000011920929,0.41799888014793396,0.800000011920929,0.0010000000474974513
0.43260401487350464,0.7900000214576721,0.41776058077812195,0.800000011920929,0.0010000000474974513
0.42176195979118347,0.8100000023841858,0.4176481366157532,0.800000011920929,0.0010000000474974513
0.4149705469608307,0.800000011920929,0.41744622588157654,0.800000011920929,0.0010000000474974513
0.39647042751312256,0.8399999737739563,0.4172880947589874,0.800000011920929,0.0010000000474974513
0.3964456617832184,0.8299999833106995,0.41712620854377747,0.800000011920929,0.0010000000474974513
0.38244423270225525,0.8500000238418579,0.4169692099094391,0.800000011920929,0.0010000000474974513
0.3892405331134796,0.8600000143051147,0.4168156087398529,0.800000011920929,0.0010000000474974513
0.3999614417552948,0.7900000214576721,0.41668567061424255,0.800000011920929,0.0010000000474974513
0.4452687203884125,0.7699999809265137,0.41656139492988586,0.800000011920929,0.0010000000474974513
0.35496798157691956,0.8500000238418579,0.41640639305114746,0.800000011920929,0.0010000000474974513
0.4259584844112396,0.7900000214576721,0.4162396490573883,0.800000011920929,0.0010000000474974513
0.40010836720466614,0.8100000023841858,0.41610223054885864,0.800000011920929,0.0010000000474974513
0.3832840621471405,0.7900000214576721,0.41591984033584595,0.800000011920929,0.0010000000474974513
0.4057639241218567,0.8199999928474426,0.415751576423645,0.800000011920929,0.0010000000474974513
0.4069356620311737,0.7900000214576721,0.41563546657562256,0.800000011920929,0.0010000000474974513
0.42037346959114075,0.7900000214576721,0.41545674204826355,0.800000011920929,0.0010000000474974513
0.37777024507522583,0.8100000023841858,0.4153158962726593,0.800000011920929,0.0010000000474974513
0.41811496019363403,0.800000011920929,0.41511666774749756,0.800000011920929,0.0010000000474974513
0.42050525546073914,0.7400000095367432,0.4150095283985138,0.800000011920929,0.0010000000474974513
0.39165642857551575,0.8299999833106995,0.4148824214935303,0.800000011920929,0.0010000000474974513
0.41273975372314453,0.8500000238418579,0.41471701860427856,0.800000011920929,0.0010000000474974513
0.4070836007595062,0.7900000214576721,0.4146011471748352,0.800000011920929,0.0010000000474974513
0.40044549107551575,0.800000011920929,0.4144386947154999,0.800000011920929,0.0010000000474974513
0.4031311273574829,0.8100000023841858,0.4143466651439667,0.800000011920929,0.0010000000474974513
0.40639418363571167,0.8199999928474426,0.41416874527931213,0.800000011920929,0.0010000000474974513
0.3958207368850708,0.7900000214576721,0.41405531764030457,0.800000011920929,0.0010000000474974513
0.41483011841773987,0.8399999737739563,0.41389796137809753,0.800000011920929,0.0010000000474974513
0.3839080035686493,0.8399999737739563,0.4137371778488159,0.800000011920929,0.0010000000474974513
0.39270660281181335,0.8399999737739563,0.4136238396167755,0.800000011920929,0.0010000000474974513
0.4119422435760498,0.7799999713897705,0.4134633541107178,0.800000011920929,0.0010000000474974513
0.4170863628387451,0.7799999713897705,0.41335538029670715,0.800000011920929,0.0010000000474974513
0.4054284393787384,0.7799999713897705,0.4131743907928467,0.800000011920929,0.0010000000474974513
0.3827386796474457,0.8100000023841858,0.4130038321018219,0.800000011920929,0.0010000000474974513
0.4218572974205017,0.7900000214576721,0.4128693640232086,0.800000011920929,0.0010000000474974513
0.409966379404068,0.8100000023841858,0.4127744734287262,0.800000011920929,0.0010000000474974513
0.3801039457321167,0.8500000238418579,0.41269683837890625,0.800000011920929,0.0010000000474974513
0.37548694014549255,0.8500000238418579,0.4125553071498871,0.800000011920929,0.0010000000474974513
0.413011372089386,0.7400000095367432,0.4124431610107422,0.800000011920929,0.0010000000474974513
0.3870897591114044,0.8299999833106995,0.4123319387435913,0.800000011920929,0.0010000000474974513
0.3544667065143585,0.800000011920929,0.4122394919395447,0.800000011920929,0.0010000000474974513
0.4041297137737274,0.7900000214576721,0.41207337379455566,0.800000011920929,0.0010000000474974513
0.41556817293167114,0.7599999904632568,0.41187554597854614,0.800000011920929,0.0010000000474974513
0.40291133522987366,0.8100000023841858,0.41172245144844055,0.800000011920929,0.0010000000474974513
0.4392727017402649,0.8199999928474426,0.41152191162109375,0.800000011920929,0.0010000000474974513
0.4010365307331085,0.800000011920929,0.4113713204860687,0.800000011920929,0.0010000000474974513
0.38541150093078613,0.8100000023841858,0.4111095368862152,0.800000011920929,0.0010000000474974513
0.4148249328136444,0.7799999713897705,0.41098129749298096,0.800000011920929,0.0010000000474974513
0.424403578042984,0.800000011920929,0.4108729660511017,0.800000011920929,0.0010000000474974513
0.35581108927726746,0.8299999833106995,0.41072800755500793,0.800000011920929,0.0010000000474974513
0.39948421716690063,0.8199999928474426,0.41065844893455505,0.800000011920929,0.0010000000474974513
0.39210841059684753,0.800000011920929,0.4105425775051117,0.800000011920929,0.0010000000474974513
0.3882794678211212,0.8199999928474426,0.4104498028755188,0.800000011920929,0.0010000000474974513
0.40392422676086426,0.8399999737739563,0.4102783203125,0.800000011920929,0.0010000000474974513
0.3757498860359192,0.8299999833106995,0.41018348932266235,0.800000011920929,0.0010000000474974513
0.4230562448501587,0.7900000214576721,0.4100548028945923,0.800000011920929,0.0010000000474974513
0.41546621918678284,0.7900000214576721,0.4098985195159912,0.8100000023841858,0.0010000000474974513
0.3704991638660431,0.8100000023841858,0.40977177023887634,0.8100000023841858,0.0010000000474974513
0.3695688545703888,0.8299999833106995,0.40962669253349304,0.8100000023841858,0.0010000000474974513
0.37850233912467957,0.8199999928474426,0.40945175290107727,0.800000011920929,0.0010000000474974513
0.4011137783527374,0.8100000023841858,0.4093741476535797,0.800000011920929,0.0010000000474974513
0.369236022233963,0.8299999833106995,0.4092501699924469,0.8100000023841858,0.0010000000474974513
0.3924494683742523,0.8199999928474426,0.4091707170009613,0.800000011920929,0.0010000000474974513
0.39071547985076904,0.8100000023841858,0.4089787006378174,0.800000011920929,0.0010000000474974513
0.4050854444503784,0.8299999833106995,0.4088539779186249,0.800000011920929,0.0010000000474974513
0.3859924077987671,0.8199999928474426,0.4087446630001068,0.800000011920929,0.0010000000474974513
0.4023321866989136,0.7699999809265137,0.4086476266384125,0.800000011920929,0.0010000000474974513
0.39073240756988525,0.8500000238418579,0.4085218906402588,0.800000011920929,0.0010000000474974513
0.37386849522590637,0.8500000238418579,0.40841275453567505,0.800000011920929,0.0010000000474974513
0.35863226652145386,0.8100000023841858,0.40831419825553894,0.800000011920929,0.0010000000474974513
0.3950135409832001,0.8100000023841858,0.4081882834434509,0.800000011920929,0.0010000000474974513
0.4080490171909332,0.8199999928474426,0.408090740442276,0.800000011920929,0.0010000000474974513
0.37982407212257385,0.8299999833106995,0.407972514629364,0.800000011920929,0.0010000000474974513
0.3549160659313202,0.8299999833106995,0.40788546204566956,0.800000011920929,0.0010000000474974513
0.36460649967193604,0.8399999737739563,0.40784701704978943,0.800000011920929,0.0010000000474974513
0.3938683271408081,0.7900000214576721,0.4077635109424591,0.800000011920929,0.0010000000474974513
0.395149827003479,0.800000011920929,0.40761443972587585,0.800000011920929,0.0010000000474974513
0.40768319368362427,0.7900000214576721,0.40747302770614624,0.800000011920929,0.0010000000474974513
0.41034290194511414,0.8199999928474426,0.4074091613292694,0.800000011920929,0.0010000000474974513
0.40316978096961975,0.8100000023841858,0.4072696566581726,0.800000011920929,0.0010000000474974513
0.4303082227706909,0.7699999809265137,0.4071561098098755,0.800000011920929,0.0010000000474974513
0.39094603061676025,0.800000011920929,0.4070594310760498,0.800000011920929,0.0010000000474974513
0.3787185251712799,0.8500000238418579,0.4069751799106598,0.800000011920929,0.0010000000474974513
0.35460612177848816,0.8399999737739563,0.40692999958992004,0.800000011920929,0.0010000000474974513
0.3720102608203888,0.8600000143051147,0.4067801237106323,0.800000011920929,0.0010000000474974513
0.3971353769302368,0.8199999928474426,0.40662920475006104,0.800000011920929,0.0010000000474974513
0.3818419277667999,0.8600000143051147,0.40654411911964417,0.800000011920929,0.0010000000474974513
0.3955828547477722,0.7699999809265137,0.4064268469810486,0.800000011920929,0.0010000000474974513
0.3599361777305603,0.8799999952316284,0.40633201599121094,0.800000011920929,0.0010000000474974513
0.3681054711341858,0.8199999928474426,0.40620529651641846,0.800000011920929,0.0010000000474974513
0.39557480812072754,0.800000011920929,0.4061361253261566,0.800000011920929,0.0010000000474974513
0.4311981201171875,0.7699999809265137,0.40600869059562683,0.800000011920929,0.0010000000474974513
0.3965578079223633,0.7900000214576721,0.4059191644191742,0.800000011920929,0.0010000000474974513
0.3894602060317993,0.8199999928474426,0.40575507283210754,0.800000011920929,0.0010000000474974513
0.39315253496170044,0.8199999928474426,0.40561091899871826,0.800000011920929,0.0010000000474974513
0.39348849654197693,0.8299999833106995,0.40551435947418213,0.800000011920929,0.0010000000474974513
0.37001487612724304,0.8199999928474426,0.40535423159599304,0.800000011920929,0.0010000000474974513
0.3521389365196228,0.8199999928474426,0.40522387623786926,0.800000011920929,0.0010000000474974513
0.38728398084640503,0.8199999928474426,0.40507858991622925,0.800000011920929,0.0010000000474974513
0.33674031496047974,0.8399999737739563,0.40495583415031433,0.800000011920929,0.0010000000474974513
0.40906786918640137,0.7900000214576721,0.4048618972301483,0.800000011920929,0.0010000000474974513
0.4038277864456177,0.8199999928474426,0.40474995970726013,0.800000011920929,0.0010000000474974513
0.3865428566932678,0.8199999928474426,0.4045644998550415,0.800000011920929,0.0010000000474974513
0.3911137878894806,0.800000011920929,0.40441107749938965,0.800000011920929,0.0010000000474974513
0.3845340609550476,0.8299999833106995,0.40428420901298523,0.800000011920929,0.0010000000474974513
0.390341579914093,0.8100000023841858,0.40416672825813293,0.800000011920929,0.0010000000474974513
0.3486582040786743,0.8500000238418579,0.4040658473968506,0.800000011920929,0.0010000000474974513
0.3485265374183655,0.8500000238418579,0.4039376378059387,0.800000011920929,0.0010000000474974513
0.37650859355926514,0.8399999737739563,0.4038231670856476,0.800000011920929,0.0010000000474974513
0.4008389413356781,0.7799999713897705,0.4037209451198578,0.800000011920929,0.0010000000474974513
0.3516099154949188,0.8199999928474426,0.40358150005340576,0.800000011920929,0.0010000000474974513
0.34128525853157043,0.8600000143051147,0.403464674949646,0.7900000214576721,0.0010000000474974513
0.3827967047691345,0.8199999928474426,0.4033626317977905,0.7900000214576721,0.0010000000474974513
0.40253350138664246,0.7699999809265137,0.40316760540008545,0.7900000214576721,0.0010000000474974513
0.4132190942764282,0.8100000023841858,0.4030958414077759,0.7900000214576721,0.0010000000474974513
0.41596463322639465,0.800000011920929,0.40303757786750793,0.7900000214576721,0.0010000000474974513
0.3757026195526123,0.7900000214576721,0.4029467701911926,0.7900000214576721,0.0010000000474974513
0.3840194642543793,0.8500000238418579,0.40290510654449463,0.7900000214576721,0.0010000000474974513
0.3721524775028229,0.8500000238418579,0.4028029143810272,0.7900000214576721,0.0010000000474974513
0.385008305311203,0.7900000214576721,0.4026508629322052,0.7900000214576721,0.0010000000474974513
0.37011879682540894,0.8399999737739563,0.40258029103279114,0.7900000214576721,0.0010000000474974513
0.3819928765296936,0.8700000047683716,0.402496337890625,0.800000011920929,0.0010000000474974513
0.3976294994354248,0.7799999713897705,0.40233737230300903,0.800000011920929,0.0010000000474974513
0.3877164125442505,0.800000011920929,0.40224334597587585,0.800000011920929,0.0010000000474974513
0.3598199188709259,0.8399999737739563,0.4021819233894348,0.800000011920929,0.0010000000474974513
0.38915932178497314,0.8100000023841858,0.4020383358001709,0.800000011920929,0.0010000000474974513
0.4110126793384552,0.7799999713897705,0.401897132396698,0.800000011920929,0.0010000000474974513
0.405737966299057,0.8100000023841858,0.40176400542259216,0.800000011920929,0.0010000000474974513
0.38256874680519104,0.8100000023841858,0.4016615152359009,0.800000011920929,0.0010000000474974513
0.3536224067211151,0.8600000143051147,0.40160149335861206,0.800000011920929,0.0010000000474974513
0.39138197898864746,0.8100000023841858,0.4014846086502075,0.800000011920929,0.0010000000474974513
0.398406445980072,0.8199999928474426,0.4013996422290802,0.800000011920929,0.0010000000474974513
0.39773938059806824,0.7799999713897705,0.40136826038360596,0.800000011920929,0.0010000000474974513
0.373504102230072,0.800000011920929,0.4013236165046692,0.800000011920929,0.0010000000474974513
0.3982006311416626,0.800000011920929,0.4011940360069275,0.800000011920929,0.0010000000474974513
0.3840296268463135,0.8199999928474426,0.40113574266433716,0.800000011920929,0.0010000000474974513
0.3897835612297058,0.8500000238418579,0.4009687006473541,0.800000011920929,0.0010000000474974513
0.35544055700302124,0.8399999737739563,0.4008902609348297,0.800000011920929,0.0010000000474974513
0.3727567195892334,0.8299999833106995,0.4007948338985443,0.800000011920929,0.0010000000474974513
0.37922781705856323,0.8399999737739563,0.40071919560432434,0.800000011920929,0.0010000000474974513
0.3330146372318268,0.8199999928474426,0.4006573557853699,0.800000011920929,0.0010000000474974513
0.4232364594936371,0.7599999904632568,0.4005778431892395,0.800000011920929,0.0010000000474974513
0.3770439028739929,0.8600000143051147,0.4005568027496338,0.800000011920929,0.0010000000474974513
0.3761187791824341,0.8799999952316284,0.4005051851272583,0.800000011920929,0.0010000000474974513
0.34853026270866394,0.800000011920929,0.4004351496696472,0.800000011920929,0.0010000000474974513
0.3786981999874115,0.8100000023841858,0.40038445591926575,0.800000011920929,0.0010000000474974513
0.36189231276512146,0.8600000143051147,0.4003048241138458,0.800000011920929,0.0010000000474974513
0.38765931129455566,0.800000011920929,0.4001862406730652,0.800000011920929,0.0010000000474974513
0.3571893274784088,0.8299999833106995,0.40005943179130554,0.800000011920929,0.0010000000474974513
0.35830533504486084,0.8500000238418579,0.3999849259853363,0.800000011920929,0.0010000000474974513
0.3712543249130249,0.8399999737739563,0.39990338683128357,0.800000011920929,0.0010000000474974513
0.3969539701938629,0.8199999928474426,0.3997628390789032,0.800000011920929,0.0010000000474974513
0.3832249939441681,0.8199999928474426,0.39962518215179443,0.800000011920929,0.0010000000474974513
0.3807644546031952,0.8100000023841858,0.3995145559310913,0.800000011920929,0.0010000000474974513
0.36720791459083557,0.8500000238418579,0.3994427025318146,0.800000011920929,0.0010000000474974513
0.34478768706321716,0.8899999856948853,0.39939603209495544,0.800000011920929,0.0010000000474974513
0.3761117160320282,0.8199999928474426,0.39936432242393494,0.800000011920929,0.0010000000474974513
0.3890758752822876,0.8100000023841858,0.39925307035446167,0.800000011920929,0.0010000000474974513
0.379740446805954,0.8199999928474426,0.39911338686943054,0.800000011920929,0.0010000000474974513
0.3932836949825287,0.7699999809265137,0.39897751808166504,0.800000011920929,0.0010000000474974513
0.4016246795654297,0.7799999713897705,0.3988591134548187,0.800000011920929,0.0010000000474974513
0.3759782314300537,0.800000011920929,0.39877402782440186,0.800000011920929,0.0010000000474974513
0.39470264315605164,0.800000011920929,0.3986397683620453,0.800000011920929,0.0010000000474974513
0.4093712568283081,0.8299999833106995,0.3985268771648407,0.800000011920929,0.0010000000474974513
0.389912873506546,0.8199999928474426,0.39852097630500793,0.800000011920929,0.0010000000474974513
0.3586026132106781,0.800000011920929,0.39845776557922363,0.800000011920929,0.0010000000474974513
0.38502246141433716,0.8199999928474426,0.3983836770057678,0.800000011920929,0.0010000000474974513
0.3605986535549164,0.8199999928474426,0.3983215093612671,0.800000011920929,0.0010000000474974513
0.3809348940849304,0.8199999928474426,0.3982621729373932,0.800000011920929,0.0010000000474974513
0.3554950952529907,0.8100000023841858,0.39817818999290466,0.800000011920929,0.0010000000474974513
0.3209032118320465,0.8899999856948853,0.3981424570083618,0.800000011920929,0.0010000000474974513
0.3802354335784912,0.8199999928474426,0.39810696244239807,0.800000011920929,0.0010000000474974513
0.36384648084640503,0.8299999833106995,0.3980046212673187,0.800000011920929,0.0010000000474974513
0.4085038900375366,0.8100000023841858,0.3979440927505493,0.800000011920929,0.0010000000474974513
0.3785334825515747,0.8100000023841858,0.3978744149208069,0.800000011920929,0.0010000000474974513
0.3808126747608185,0.8500000238418579,0.3978044390678406,0.800000011920929,0.0010000000474974513
0.3443797826766968,0.8500000238418579,0.39773237705230713,0.800000011920929,0.0010000000474974513
0.35633689165115356,0.8100000023841858,0.3977324366569519,0.800000011920929,0.0010000000474974513
0.3910723030567169,0.7699999809265137,0.3976058065891266,0.800000011920929,0.0010000000474974513
0.36236533522605896,0.8199999928474426,0.39760565757751465,0.800000011920929,0.0010000000474974513
0.3658195436000824,0.8199999928474426,0.3975583612918854,0.800000011920929,0.0010000000474974513
0.3491226136684418,0.8299999833106995,0.3974229395389557,0.8100000023841858,0.0010000000474974513
0.3860541582107544,0.8600000143051147,0.3972957134246826,0.8100000023841858,0.0010000000474974513
0.3988804221153259,0.8100000023841858,0.3971880078315735,0.8100000023841858,0.0010000000474974513
0.3660048544406891,0.8500000238418579,0.3971010148525238,0.8100000023841858,0.0010000000474974513
0.3853520452976227,0.8199999928474426,0.39700987935066223,0.8100000023841858,0.0010000000474974513
0.3788537085056305,0.8100000023841858,0.396891325712204,0.8100000023841858,0.0010000000474974513
0.38062039017677307,0.8299999833106995,0.39682459831237793,0.8100000023841858,0.0010000000474974513
0.34870997071266174,0.8500000238418579,0.3967413008213043,0.8100000023841858,0.0010000000474974513
0.383690744638443,0.8100000023841858,0.39664191007614136,0.8100000023841858,0.0010000000474974513
0.3704017996788025,0.8199999928474426,0.3965354859828949,0.8100000023841858,0.0010000000474974513
0.37433597445487976,0.800000011920929,0.3964691460132599,0.8100000023841858,0.0010000000474974513
0.34599384665489197,0.8399999737739563,0.39641082286834717,0.8100000023841858,0.0010000000474974513
0.35197487473487854,0.8500000238418579,0.39638665318489075,0.8100000023841858,0.0010000000474974513
0.3960878849029541,0.7799999713897705,0.39636853337287903,0.8100000023841858,0.0010000000474974513
0.36771661043167114,0.8399999737739563,0.3962002694606781,0.8100000023841858,0.0010000000474974513
0.3688400983810425,0.800000011920929,0.39600682258605957,0.8100000023841858,0.0010000000474974513
0.3539060652256012,0.8299999833106995,0.39594849944114685,0.8100000023841858,0.0010000000474974513
0.3852877914905548,0.8299999833106995,0.39590659737586975,0.8100000023841858,0.0010000000474974513
0.3870965540409088,0.8199999928474426,0.39575573801994324,0.800000011920929,0.0010000000474974513
0.34513264894485474,0.8600000143051147,0.39569708704948425,0.800000011920929,0.0010000000474974513
0.3544246554374695,0.8399999737739563,0.3956744372844696,0.800000011920929,0.0010000000474974513
0.3753622770309448,0.8500000238418579,0.3956645131111145,0.8100000023841858,0.0010000000474974513
0.3869435489177704,0.8100000023841858,0.3956333100795746,0.8100000023841858,0.0010000000474974513
0.3734000027179718,0.8299999833106995,0.3955027461051941,0.800000011920929,0.0010000000474974513
0.3381323218345642,0.8600000143051147,0.3954225182533264,0.800000011920929,0.0010000000474974513
0.3241215944290161,0.8399999737739563,0.3953382968902588,0.800000011920929,0.0010000000474974513
0.353509783744812,0.8199999928474426,0.3952704966068268,0.800000011920929,0.0010000000474974513
0.35821354389190674,0.8299999833106995,0.39526212215423584,0.800000011920929,0.0010000000474974513
0.3953782021999359,0.8299999833106995,0.39519885182380676,0.800000011920929,0.0010000000474974513
0.38003331422805786,0.800000011920929,0.3951936662197113,0.800000011920929,0.0010000000474974513
0.3447878360748291,0.8600000143051147,0.3951117694377899,0.800000011920929,0.0010000000474974513
0.38831600546836853,0.8100000023841858,0.39503613114356995,0.800000011920929,0.0010000000474974513
0.3559980094432831,0.8600000143051147,0.3949474096298218,0.800000011920929,0.0010000000474974513
0.3635790944099426,0.8100000023841858,0.39487308263778687,0.800000011920929,0.0010000000474974513
0.3750072121620178,0.8399999737739563,0.3948017954826355,0.800000011920929,0.0010000000474974513
0.40536412596702576,0.8199999928474426,0.3947124779224396,0.800000011920929,0.0010000000474974513
0.32208603620529175,0.8700000047683716,0.39463263750076294,0.800000011920929,0.0010000000474974513
0.3918152153491974,0.8100000023841858,0.39455553889274597,0.800000011920929,0.0010000000474974513
0.4017329514026642,0.8199999928474426,0.3945125937461853,0.800000011920929,0.0010000000474974513
0.3417409658432007,0.8399999737739563,0.39437487721443176,0.8100000023841858,0.0010000000474974513
0.38343390822410583,0.8199999928474426,0.39430859684944153,0.8100000023841858,0.0010000000474974513
0.39517486095428467,0.8199999928474426,0.39428284764289856,0.8100000023841858,0.0010000000474974513
0.3779315948486328,0.7900000214576721,0.39414286613464355,0.8100000023841858,0.0010000000474974513
0.33881673216819763,0.8399999737739563,0.3941600024700165,0.8100000023841858,0.0010000000474974513
0.34243062138557434,0.8399999737739563,0.39411476254463196,0.8100000023841858,0.0010000000474974513
0.3584626019001007,0.8600000143051147,0.39399608969688416,0.8100000023841858,0.0010000000474974513
0.3343510925769806,0.8500000238418579,0.39390045404434204,0.8100000023841858,0.0010000000474974513
0.3759464919567108,0.8199999928474426,0.39378830790519714,0.8100000023841858,0.0010000000474974513
0.38853907585144043,0.8299999833106995,0.39371436834335327,0.8100000023841858,0.0010000000474974513
0.3736686408519745,0.8399999737739563,0.39358454942703247,0.8100000023841858,0.0010000000474974513
0.35234320163726807,0.8299999833106995,0.39346328377723694,0.8100000023841858,0.0010000000474974513
0.35905495285987854,0.8299999833106995,0.3933948278427124,0.8100000023841858,0.0010000000474974513
0.39186882972717285,0.7799999713897705,0.3933020830154419,0.8100000023841858,0.0010000000474974513
0.3529103398323059,0.8100000023841858,0.39325305819511414,0.8100000023841858,0.0010000000474974513
0.34809640049934387,0.8399999737739563,0.39324110746383667,0.8100000023841858,0.0010000000474974513
0.3866422176361084,0.8399999737739563,0.3931090533733368,0.8100000023841858,0.0010000000474974513
0.3606521487236023,0.8299999833106995,0.39304348826408386,0.8100000023841858,0.0010000000474974513
0.38244107365608215,0.8299999833106995,0.3930133879184723,0.8100000023841858,0.0010000000474974513
0.33874693512916565,0.8500000238418579,0.39291858673095703,0.8100000023841858,0.0010000000474974513
0.36275777220726013,0.8100000023841858,0.39287713170051575,0.8100000023841858,0.0010000000474974513
0.3398746848106384,0.8399999737739563,0.3928564488887787,0.8100000023841858,0.0010000000474974513
0.3247565031051636,0.8500000238418579,0.3928166627883911,0.8100000023841858,0.0010000000474974513
0.35805076360702515,0.8500000238418579,0.39272814989089966,0.8100000023841858,0.0010000000474974513
0.3458496034145355,0.8399999737739563,0.39258086681365967,0.8100000023841858,0.0010000000474974513
0.36151835322380066,0.8199999928474426,0.39252978563308716,0.8100000023841858,0.0010000000474974513
0.3477380871772766,0.8199999928474426,0.3924819827079773,0.8100000023841858,0.0010000000474974513
0.365762323141098,0.8199999928474426,0.3924177289009094,0.8100000023841858,0.0010000000474974513
0.33121708035469055,0.8500000238418579,0.3923933506011963,0.8100000023841858,0.0010000000474974513
0.3599851727485657,0.8199999928474426,0.3923168182373047,0.8100000023841858,0.0010000000474974513
0.39514487981796265,0.800000011920929,0.39228591322898865,0.8100000023841858,0.0010000000474974513
0.3475639820098877,0.8399999737739563,0.3922465145587921,0.8100000023841858,0.0010000000474974513
0.33139488101005554,0.8399999737739563,0.39223983883857727,0.8100000023841858,0.0010000000474974513
0.3474792540073395,0.8299999833106995,0.39216598868370056,0.8100000023841858,0.0010000000474974513
0.35059666633605957,0.8399999737739563,0.39212822914123535,0.8100000023841858,0.0010000000474974513
0.3618839979171753,0.8299999833106995,0.3921022117137909,0.8100000023841858,0.0010000000474974513
0.3557456135749817,0.8100000023841858,0.39202263951301575,0.8100000023841858,0.0010000000474974513
0.34873008728027344,0.8600000143051147,0.3920019865036011,0.8100000023841858,0.0010000000474974513
0.3475768268108368,0.8299999833106995,0.39192119240760803,0.8100000023841858,0.0010000000474974513
0.3366943299770355,0.8600000143051147,0.39186203479766846,0.8100000023841858,0.0010000000474974513
0.3678998053073883,0.8199999928474426,0.39186105132102966,0.8100000023841858,0.0010000000474974513
0.4075034260749817,0.7900000214576721,0.39177292585372925,0.8100000023841858,0.0010000000474974513
0.37886860966682434,0.800000011920929,0.39177119731903076,0.8100000023841858,0.0010000000474974513
0.37073200941085815,0.8199999928474426,0.39171597361564636,0.8100000023841858,0.0010000000474974513
0.3411024510860443,0.8399999737739563,0.3916809558868408,0.8100000023841858,0.0010000000474974513
0.34235596656799316,0.8100000023841858,0.39164528250694275,0.8100000023841858,0.0010000000474974513
0.38629573583602905,0.8199999928474426,0.3915348947048187,0.8100000023841858,0.0010000000474974513
0.33367347717285156,0.8799999952316284,0.39148208498954773,0.8100000023841858,0.0010000000474974513
0.31837522983551025,0.8500000238418579,0.39148643612861633,0.8100000023841858,0.0010000000474974513
0.3380106985569,0.8399999737739563,0.3914867341518402,0.8100000023841858,0.0010000000474974513
0.32646018266677856,0.8700000047683716,0.39137986302375793,0.8100000023841858,0.0010000000474974513
0.3624233603477478,0.8299999833106995,0.3913075625896454,0.8100000023841858,0.0010000000474974513
0.3057335615158081,0.8799999952316284,0.3912661075592041,0.8100000023841858,0.0010000000474974513
0.37423640489578247,0.800000011920929,0.39115533232688904,0.8100000023841858,0.0010000000474974513
0.3421970307826996,0.8399999737739563,0.39111173152923584,0.8100000023841858,0.0010000000474974513
0.3367639482021332,0.8600000143051147,0.3910706341266632,0.8100000023841858,0.0010000000474974513
0.32016631960868835,0.8600000143051147,0.391075998544693,0.8100000023841858,0.0010000000474974513
0.3409034013748169,0.8600000143051147,0.39103737473487854,0.8100000023841858,0.0010000000474974513
0.34313109517097473,0.8199999928474426,0.39096710085868835,0.8100000023841858,0.0010000000474974513
0.3541492521762848,0.8100000023841858,0.39093682169914246,0.8100000023841858,0.0010000000474974513
0.3712887167930603,0.8199999928474426,0.3909061849117279,0.8100000023841858,0.0010000000474974513
0.3388764262199402,0.8600000143051147,0.39080363512039185,0.8100000023841858,0.0010000000474974513
0.35409024357795715,0.8199999928474426,0.39079520106315613,0.8100000023841858,0.0010000000474974513
0.3290736675262451,0.8799999952316284,0.3907439410686493,0.8100000023841858,0.0010000000474974513
0.345530241727829,0.8299999833106995,0.39067748188972473,0.8100000023841858,0.0010000000474974513
0.38114410638809204,0.8199999928474426,0.3905523717403412,0.8100000023841858,0.0010000000474974513
0.3485972583293915,0.8600000143051147,0.39053744077682495,0.8100000023841858,0.0010000000474974513
0.38481372594833374,0.8100000023841858,0.39050811529159546,0.8100000023841858,0.0010000000474974513
0.3561663329601288,0.8399999737739563,0.3904077410697937,0.8100000023841858,0.0010000000474974513
0.35544922947883606,0.8500000238418579,0.39033135771751404,0.8100000023841858,0.0010000000474974513
0.32024550437927246,0.8600000143051147,0.39027976989746094,0.8100000023841858,0.0010000000474974513
0.34807562828063965,0.8299999833106995,0.39024361968040466,0.8100000023841858,0.0010000000474974513
0.3561820983886719,0.8600000143051147,0.3902258574962616,0.8100000023841858,0.0010000000474974513
0.3356567621231079,0.8700000047683716,0.3901830315589905,0.8100000023841858,0.0010000000474974513
0.36981210112571716,0.800000011920929,0.39012524485588074,0.8100000023841858,0.0010000000474974513
0.3768593668937683,0.8399999737739563,0.3900376558303833,0.8100000023841858,0.0010000000474974513
0.3635467290878296,0.8299999833106995,0.38995465636253357,0.8100000023841858,0.0010000000474974513
0.3586460053920746,0.8299999833106995,0.38995662331581116,0.8100000023841858,0.0010000000474974513
0.3285064697265625,0.8999999761581421,0.3899678885936737,0.8100000023841858,0.0010000000474974513
0.41161873936653137,0.7900000214576721,0.3899282217025757,0.8100000023841858,0.0010000000474974513
0.3366590440273285,0.8199999928474426,0.3898910582065582,0.8100000023841858,0.0010000000474974513
0.35927078127861023,0.800000011920929,0.3897899389266968,0.8100000023841858,0.0010000000474974513
0.34918949007987976,0.8600000143051147,0.3896954357624054,0.8100000023841858,0.0010000000474974513
0.3465876281261444,0.8199999928474426,0.38962143659591675,0.8100000023841858,0.0010000000474974513
0.37058526277542114,0.8100000023841858,0.389515221118927,0.8100000023841858,0.0010000000474974513
0.34360575675964355,0.8199999928474426,0.38942626118659973,0.8100000023841858,0.0010000000474974513
0.3595590591430664,0.8199999928474426,0.3894301652908325,0.8100000023841858,0.0010000000474974513
0.3664305806159973,0.7900000214576721,0.38941776752471924,0.8100000023841858,0.0010000000474974513
0.34846675395965576,0.8600000143051147,0.389404833316803,0.8100000023841858,0.0010000000474974513
0.3373648524284363,0.8600000143051147,0.3893526792526245,0.8100000023841858,0.0010000000474974513
0.35927891731262207,0.8500000238418579,0.38926559686660767,0.8100000023841858,0.0010000000474974513
0.3538821339607239,0.8399999737739563,0.38920748233795166,0.8100000023841858,0.0010000000474974513
0.3581788241863251,0.8399999737739563,0.389097660779953,0.8100000023841858,0.0010000000474974513
0.3380935788154602,0.8399999737739563,0.3890530467033386,0.8100000023841858,0.0010000000474974513
0.35722458362579346,0.8299999833106995,0.38896697759628296,0.8100000023841858,0.0010000000474974513
0.3743467628955841,0.8500000238418579,0.38887545466423035,0.8100000023841858,0.0010000000474974513
0.31413018703460693,0.8399999737739563,0.38880202174186707,0.8100000023841858,0.0010000000474974513
0.370891809463501,0.8399999737739563,0.38873204588890076,0.8100000023841858,0.0010000000474974513
0.33840522170066833,0.8399999737739563,0.3886638581752777,0.8100000023841858,0.0010000000474974513
0.3744964599609375,0.8199999928474426,0.3885725140571594,0.8100000023841858,0.0010000000474974513
0.3323594927787781,0.8299999833106995,0.38855689764022827,0.8100000023841858,0.0010000000474974513
0.35944852232933044,0.8299999833106995,0.38841938972473145,0.8100000023841858,0.0010000000474974513
0.3394142985343933,0.8399999737739563,0.3883512020111084,0.8100000023841858,0.0010000000474974513
0.3607020676136017,0.800000011920929,0.388306587934494,0.8100000023841858,0.0010000000474974513
0.3908081352710724,0.8199999928474426,0.3882359266281128,0.8100000023841858,0.0010000000474974513
0.3486589789390564,0.8500000238418579,0.38817501068115234,0.8100000023841858,0.0010000000474974513
0.354798823595047,0.8100000023841858,0.3881241977214813,0.8100000023841858,0.0010000000474974513
0.34840840101242065,0.8399999737739563,0.3880537152290344,0.8100000023841858,0.0010000000474974513
0.3497547507286072,0.8399999737739563,0.3879939913749695,0.8100000023841858,0.0010000000474974513
0.4099951684474945,0.8100000023841858,0.38794249296188354,0.8100000023841858,0.0010000000474974513
0.3428080081939697,0.8199999928474426,0.3879247009754181,0.8100000023841858,0.0010000000474974513
0.37816521525382996,0.8100000023841858,0.3879573941230774,0.8100000023841858,0.0010000000474974513
0.3598119020462036,0.8299999833106995,0.38791030645370483,0.8100000023841858,0.0010000000474974513
0.37199944257736206,0.8199999928474426,0.3878767490386963,0.8100000023841858,0.0010000000474974513
0.3989447057247162,0.800000011920929,0.3877829313278198,0.8100000023841858,0.0010000000474974513
0.36366990208625793,0.8399999737739563,0.38774222135543823,0.8100000023841858,0.0010000000474974513
0.33778277039527893,0.800000011920929,0.38770365715026855,0.8100000023841858,0.0010000000474974513
0.3623305559158325,0.8399999737739563,0.3876156508922577,0.8100000023841858,0.0010000000474974513
0.3163226842880249,0.8500000238418579,0.38758546113967896,0.8100000023841858,0.0010000000474974513
0.3545401096343994,0.8399999737739563,0.3874942660331726,0.8100000023841858,0.0010000000474974513
0.3696836233139038,0.8299999833106995,0.38741952180862427,0.8100000023841858,0.0010000000474974513
0.33765044808387756,0.8399999737739563,0.3873373866081238,0.8100000023841858,0.0010000000474974513
0.34429579973220825,0.8600000143051147,0.3873102068901062,0.8100000023841858,0.0010000000474974513
0.35384437441825867,0.8399999737739563,0.3872431814670563,0.8100000023841858,0.0010000000474974513
0.37334904074668884,0.8100000023841858,0.38718920946121216,0.8100000023841858,0.0010000000474974513
0.34334373474121094,0.8199999928474426,0.3871338367462158,0.8100000023841858,0.0010000000474974513
0.34533455967903137,0.8600000143051147,0.38710322976112366,0.8100000023841858,0.0010000000474974513
0.3335402011871338,0.8399999737739563,0.3870616853237152,0.8100000023841858,0.0010000000474974513
0.3321550488471985,0.8500000238418579,0.38704195618629456,0.8100000023841858,0.0010000000474974513
0.34837985038757324,0.800000011920929,0.38701748847961426,0.8100000023841858,0.0010000000474974513
0.3480430245399475,0.8299999833106995,0.38694480061531067,0.8100000023841858,0.0010000000474974513
0.3420824408531189,0.8500000238418579,0.3868899941444397,0.8100000023841858,0.0010000000474974513
0.34279656410217285,0.8299999833106995,0.3868465721607208,0.8100000023841858,0.0010000000474974513
0.3210526704788208,0.8600000143051147,0.38680607080459595,0.8100000023841858,0.0010000000474974513
0.36005455255508423,0.800000011920929,0.386769562959671,0.8100000023841858,0.0010000000474974513
0.3877863585948944,0.8199999928474426,0.386702299118042,0.8100000023841858,0.0010000000474974513
0.3609049618244171,0.8299999833106995,0.38663581013679504,0.8100000023841858,0.0010000000474974513
0.3666340708732605,0.8199999928474426,0.3866437077522278,0.8100000023841858,0.0010000000474974513
0.35093578696250916,0.8500000238418579,0.3865392208099365,0.8100000023841858,0.0010000000474974513
0.33369457721710205,0.8500000238418579,0.3865017592906952,0.8100000023841858,0.0010000000474974513
0.33652323484420776,0.8500000238418579,0.386455237865448,0.8100000023841858,0.0010000000474974513
0.33480435609817505,0.8299999833106995,0.3864425718784332,0.8100000023841858,0.0010000000474974513
0.30236318707466125,0.8799999952316284,0.3864397406578064,0.8100000023841858,0.0010000000474974513
0.34328094124794006,0.8399999737739563,0.3864250183105469,0.8100000023841858,0.0010000000474974513
0.32008180022239685,0.8600000143051147,0.3863300383090973,0.8100000023841858,0.0010000000474974513
0.3273095190525055,0.8199999928474426,0.3862777650356293,0.8100000023841858,0.0010000000474974513
0.34965720772743225,0.800000011920929,0.38626810908317566,0.8100000023841858,0.0010000000474974513
0.3385929465293884,0.8299999833106995,0.38622748851776123,0.8100000023841858,0.0010000000474974513
0.33444830775260925,0.8299999833106995,0.3861290216445923,0.8100000023841858,0.0010000000474974513
0.3261699378490448,0.8500000238418579,0.3860577344894409,0.8100000023841858,0.0010000000474974513
0.33749106526374817,0.8500000238418579,0.3860265016555786,0.8100000023841858,0.0010000000474974513
0.33175987005233765,0.8600000143051147,0.3859778642654419,0.8100000023841858,0.0010000000474974513
0.36048027873039246,0.8100000023841858,0.3858923614025116,0.8100000023841858,0.0010000000474974513
0.31927263736724854,0.8399999737739563,0.3858312964439392,0.8100000023841858,0.0010000000474974513
0.3339774012565613,0.8299999833106995,0.38587769865989685,0.8100000023841858,0.0010000000474974513
0.3229774236679077,0.8799999952316284,0.38583213090896606,0.8100000023841858,0.0010000000474974513
0.33430179953575134,0.8600000143051147,0.385873019695282,0.8100000023841858,0.0010000000474974513
0.34533917903900146,0.8399999737739563,0.3857945203781128,0.8100000023841858,0.0010000000474974513
0.33770692348480225,0.8500000238418579,0.38578957319259644,0.8100000023841858,0.0010000000474974513
0.3471667170524597,0.8399999737739563,0.38575008511543274,0.8100000023841858,0.0010000000474974513
0.35538220405578613,0.8299999833106995,0.38568538427352905,0.8100000023841858,0.0010000000474974513
0.34008991718292236,0.8399999737739563,0.38560935854911804,0.8100000023841858,0.0010000000474974513
0.3447902798652649,0.8199999928474426,0.3855055868625641,0.8100000023841858,0.0010000000474974513
0.3304767608642578,0.8600000143051147,0.3854186236858368,0.8100000023841858,0.0010000000474974513
0.3383428454399109,0.8500000238418579,0.3853907287120819,0.8100000023841858,0.0010000000474974513
0.3106396198272705,0.8600000143051147,0.3853541910648346,0.8100000023841858,0.0010000000474974513
0.34200364351272583,0.8500000238418579,0.38531193137168884,0.8100000023841858,0.0010000000474974513
0.3646606504917145,0.8500000238418579,0.3852226734161377,0.8100000023841858,0.0010000000474974513
0.37797728180885315,0.8299999833106995,0.3852068781852722,0.8100000023841858,0.0010000000474974513
0.30996981263160706,0.8700000047683716,0.38524019718170166,0.8100000023841858,0.0010000000474974513
0.3329346776008606,0.8399999737739563,0.3852221369743347,0.8100000023841858,0.0010000000474974513
0.3522133529186249,0.8299999833106995,0.38518738746643066,0.8100000023841858,0.0010000000474974513
0.34951069951057434,0.800000011920929,0.3851788341999054,0.8100000023841858,0.0010000000474974513
0.3929283618927002,0.800000011920929,0.38509970903396606,0.8100000023841858,0.0010000000474974513
0.35010188817977905,0.8299999833106995,0.38500264286994934,0.8100000023841858,0.0010000000474974513
0.2994432747364044,0.8399999737739563,0.384971022605896,0.8100000023841858,0.0010000000474974513
0.36877670884132385,0.8299999833106995,0.3849409222602844,0.8100000023841858,0.0010000000474974513
0.38180655241012573,0.8299999833106995,0.38490787148475647,0.8100000023841858,0.0010000000474974513
0.3771197199821472,0.8199999928474426,0.38488128781318665,0.8100000023841858,0.0010000000474974513
0.31449994444847107,0.8700000047683716,0.3848426938056946,0.8100000023841858,0.0010000000474974513
0.35928329825401306,0.8399999737739563,0.3847889304161072,0.8100000023841858,0.0010000000474974513
0.3236404061317444,0.8399999737739563,0.3848201334476471,0.8100000023841858,0.0010000000474974513
0.3275989294052124,0.8700000047683716,0.38477402925491333,0.8100000023841858,0.0010000000474974513
0.32779639959335327,0.800000011920929,0.3847132921218872,0.8100000023841858,0.0010000000474974513
0.3782986104488373,0.800000011920929,0.3846466839313507,0.8100000023841858,0.0010000000474974513
0.32943207025527954,0.8500000238418579,0.38461554050445557,0.8100000023841858,0.0010000000474974513
0.33312684297561646,0.8500000238418579,0.38451218605041504,0.8100000023841858,0.0010000000474974513
0.3558053970336914,0.8500000238418579,0.3844081461429596,0.8100000023841858,0.0010000000474974513
0.37317192554473877,0.8399999737739563,0.3843517303466797,0.8100000023841858,0.0010000000474974513
0.3698011636734009,0.8299999833106995,0.38428768515586853,0.8100000023841858,0.0010000000474974513
0.33747005462646484,0.8600000143051147,0.384305864572525,0.8100000023841858,0.0010000000474974513
0.354414165019989,0.8399999737739563,0.38428372144699097,0.8100000023841858,0.0010000000474974513
0.32262322306632996,0.8700000047683716,0.3842158913612366,0.8100000023841858,0.0010000000474974513
0.3482508957386017,0.8399999737739563,0.38414672017097473,0.8100000023841858,0.0010000000474974513
0.33217766880989075,0.8500000238418579,0.3840831518173218,0.8100000023841858,0.0010000000474974513
0.36761993169784546,0.8199999928474426,0.3840674161911011,0.8100000023841858,0.0010000000474974513
0.3354966640472412,0.8600000143051147,0.3840523064136505,0.8100000023841858,0.0010000000474974513
0.3198983073234558,0.8500000238418579,0.384000688791275,0.8100000023841858,0.0010000000474974513
0.3582006096839905,0.8399999737739563,0.3840184509754181,0.8100000023841858,0.0010000000474974513
0.3202158212661743,0.8399999737739563,0.3839717507362366,0.8100000023841858,0.0010000000474974513
0.34416112303733826,0.8199999928474426,0.38396304845809937,0.8100000023841858,0.0010000000474974513
0.31259411573410034,0.8600000143051147,0.38396748900413513,0.8100000023841858,0.0010000000474974513
0.3124653398990631,0.8600000143051147,0.3838745057582855,0.8100000023841858,0.0010000000474974513
0.338887482881546,0.8299999833106995,0.3838854730129242,0.8100000023841858,0.0010000000474974513
0.3411715030670166,0.8600000143051147,0.38377630710601807,0.8100000023841858,0.0010000000474974513
0.3637462258338928,0.8299999833106995,0.38369274139404297,0.8100000023841858,0.0010000000474974513
0.31585484743118286,0.8700000047683716,0.3836013078689575,0.8100000023841858,0.0010000000474974513
0.352274090051651,0.8500000238418579,0.38353878259658813,0.8100000023841858,0.0010000000474974513
0.32381510734558105,0.8600000143051147,0.38348880410194397,0.8100000023841858,0.0010000000474974513
0.3659416437149048,0.800000011920929,0.3834243714809418,0.8100000023841858,0.0010000000474974513
0.3127393424510956,0.8500000238418579,0.38339585065841675,0.8100000023841858,0.0010000000474974513
0.3724932372570038,0.800000011920929,0.38325926661491394,0.8100000023841858,0.0010000000474974513
0.3300175070762634,0.8399999737739563,0.38319551944732666,0.8100000023841858,0.0010000000474974513
0.3472934067249298,0.8199999928474426,0.3831150531768799,0.8100000023841858,0.0010000000474974513
0.3246634006500244,0.8199999928474426,0.3831450939178467,0.8100000023841858,0.0010000000474974513
0.3062697649002075,0.8799999952316284,0.38312384486198425,0.8100000023841858,0.0010000000474974513
0.34214621782302856,0.8199999928474426,0.38309869170188904,0.8100000023841858,0.0010000000474974513
0.32191139459609985,0.8500000238418579,0.38305550813674927,0.8100000023841858,0.0010000000474974513
0.3361022174358368,0.8399999737739563,0.38303470611572266,0.8100000023841858,0.0010000000474974513
0.3921568691730499,0.7900000214576721,0.3829445540904999,0.8100000023841858,0.0010000000474974513
0.31357836723327637,0.8600000143051147,0.38296273350715637,0.8100000023841858,0.0010000000474974513
0.3264375925064087,0.8600000143051147,0.3829299509525299,0.8100000023841858,0.0010000000474974513
0.34444981813430786,0.8299999833106995,0.3829421103000641,0.8100000023841858,0.0010000000474974513
0.3687664270401001,0.8100000023841858,0.3829091191291809,0.8100000023841858,0.0010000000474974513
0.3709429204463959,0.8399999737739563,0.38282889127731323,0.8100000023841858,0.0010000000474974513
0.3279140591621399,0.8199999928474426,0.3827824890613556,0.8100000023841858,0.0010000000474974513
0.3394252359867096,0.8399999737739563,0.38270771503448486,0.8100000023841858,0.0010000000474974513
0.2995329797267914,0.8500000238418579,0.3826603591442108,0.8100000023841858,0.0010000000474974513
0.32354316115379333,0.8299999833106995,0.38263413310050964,0.8100000023841858,0.0010000000474974513
0.30323636531829834,0.8600000143051147,0.3825879693031311,0.8100000023841858,0.0010000000474974513
0.324655145406723,0.8399999737739563,0.3825474977493286,0.8100000023841858,0.0010000000474974513
0.3216054141521454,0.8500000238418579,0.3824915289878845,0.8100000023841858,0.0010000000474974513
0.32543063163757324,0.8199999928474426,0.382438063621521,0.8100000023841858,0.0010000000474974513
0.30217891931533813,0.8600000143051147,0.3823931813240051,0.8100000023841858,0.0010000000474974513
0.3097221851348877,0.8600000143051147,0.38239824771881104,0.8100000023841858,0.0010000000474974513
0.3394498825073242,0.8399999737739563,0.3823223412036896,0.8100000023841858,0.0010000000474974513
0.36625462770462036,0.8199999928474426,0.38223719596862793,0.8100000023841858,0.0010000000474974513
0.37678787112236023,0.8299999833106995,0.38222813606262207,0.8100000023841858,0.0010000000474974513
0.31103697419166565,0.8700000047683716,0.3821936845779419,0.8100000023841858,0.0010000000474974513
0.3381996154785156,0.8500000238418579,0.3820798993110657,0.8100000023841858,0.0010000000474974513
0.33115410804748535,0.8600000143051147,0.3820900321006775,0.8100000023841858,0.0010000000474974513
0.3302425444126129,0.8399999737739563,0.3819946348667145,0.8100000023841858,0.0010000000474974513
0.2947995066642761,0.8600000143051147,0.3819960057735443,0.8100000023841858,0.0010000000474974513
0.3588668704032898,0.8500000238418579,0.38195595145225525,0.8100000023841858,0.0010000000474974513
0.2964406907558441,0.8799999952316284,0.38193294405937195,0.8100000023841858,0.0010000000474974513
0.3786087930202484,0.7799999713897705,0.3818210959434509,0.8100000023841858,0.0010000000474974513
0.3257661759853363,0.8600000143051147,0.38184288144111633,0.8100000023841858,0.0010000000474974513
0.3605738580226898,0.8500000238418579,0.3817153573036194,0.8100000023841858,0.0010000000474974513
0.33095744252204895,0.8299999833106995,0.38166847825050354,0.8100000023841858,0.0010000000474974513
0.37895575165748596,0.8199999928474426,0.38160136342048645,0.8100000023841858,0.0010000000474974513
0.35669827461242676,0.8100000023841858,0.38154903054237366,0.8100000023841858,0.0010000000474974513
0.33145660161972046,0.8500000238418579,0.3815559446811676,0.8100000023841858,0.0010000000474974513
0.3430637717247009,0.8299999833106995,0.3814846873283386,0.8100000023841858,0.0010000000474974513
0.33746954798698425,0.8199999928474426,0.3814515769481659,0.8100000023841858,0.0010000000474974513
0.33791109919548035,0.8199999928474426,0.3813799023628235,0.8100000023841858,0.0010000000474974513
0.29415228962898254,0.8999999761581421,0.3813367486000061,0.8100000023841858,0.0010000000474974513
0.3244304358959198,0.8500000238418579,0.3812237083911896,0.8100000023841858,0.0010000000474974513
0.33181798458099365,0.8199999928474426,0.38114428520202637,0.8100000023841858,0.0010000000474974513
0.35085609555244446,0.8399999737739563,0.3810890316963196,0.8100000023841858,0.0010000000474974513
0.33493584394454956,0.8299999833106995,0.38107985258102417,0.8100000023841858,0.0010000000474974513
0.3192501962184906,0.8600000143051147,0.38096901774406433,0.8100000023841858,0.0010000000474974513
0.3289732336997986,0.8600000143051147,0.38088738918304443,0.8100000023841858,0.0010000000474974513
0.3355456590652466,0.7900000214576721,0.3809002637863159,0.8100000023841858,0.0010000000474974513
0.3624153435230255,0.800000011920929,0.38088253140449524,0.8100000023841858,0.0010000000474974513
0.33558207750320435,0.8299999833106995,0.38078728318214417,0.8100000023841858,0.0010000000474974513
0.399091899394989,0.7699999809265137,0.3807626962661743,0.8100000023841858,0.0010000000474974513
0.3074985146522522,0.8799999952316284,0.3806889057159424,0.8100000023841858,0.0010000000474974513
0.33461806178092957,0.8500000238418579,0.3806683421134949,0.8100000023841858,0.0010000000474974513
0.3487744927406311,0.8299999833106995,0.3807103633880615,0.8100000023841858,0.0010000000474974513
0.3096691370010376,0.8299999833106995,0.3806564211845398,0.8100000023841858,0.0010000000474974513
0.3267412483692169,0.8500000238418579,0.3806425929069519,0.8100000023841858,0.0010000000474974513
0.32675161957740784,0.8600000143051147,0.38058602809906006,0.8100000023841858,0.0010000000474974513
0.3400932252407074,0.8299999833106995,0.38055306673049927,0.8100000023841858,0.0010000000474974513
0.3057132065296173,0.8399999737739563,0.38057056069374084,0.8100000023841858,0.0010000000474974513
0.3371247351169586,0.8299999833106995,0.3805786967277527,0.8100000023841858,0.0010000000474974513
0.33086922764778137,0.800000011920929,0.3805374503135681,0.8100000023841858,0.0010000000474974513
0.31928038597106934,0.8399999737739563,0.3805203139781952,0.8100000023841858,0.0010000000474974513
0.31912344694137573,0.8600000143051147,0.3805462718009949,0.8100000023841858,0.0010000000474974513
0.36476463079452515,0.8299999833106995,0.3804818093776703,0.8100000023841858,0.0010000000474974513
0.3653012216091156,0.8100000023841858,0.3804527223110199,0.8100000023841858,0.0010000000474974513
0.3566659688949585,0.8299999833106995,0.38039329648017883,0.8100000023841858,0.0010000000474974513
0.34399282932281494,0.8399999737739563,0.38041290640830994,0.8100000023841858,0.0010000000474974513
0.31441524624824524,0.8500000238418579,0.38034477829933167,0.8100000023841858,0.0010000000474974513
0.31914088129997253,0.8299999833106995,0.38036277890205383,0.8100000023841858,0.0010000000474974513
0.3196333050727844,0.8399999737739563,0.3803479075431824,0.8100000023841858,0.0010000000474974513
0.2926713526248932,0.8700000047683716,0.3802979588508606,0.8100000023841858,0.0010000000474974513
0.3554742932319641,0.8100000023841858,0.3802362084388733,0.8100000023841858,0.0010000000474974513
0.3457547128200531,0.8399999737739563,0.3802367150783539,0.8100000023841858,0.0010000000474974513
0.29793643951416016,0.8700000047683716,0.3802151083946228,0.8100000023841858,0.0010000000474974513
0.3234791159629822,0.8399999737739563,0.3801839351654053,0.8100000023841858,0.0010000000474974513
0.3597053587436676,0.7900000214576721,0.3801458477973938,0.8100000023841858,0.0010000000474974513
0.3218761384487152,0.8299999833106995,0.3800487816333771,0.8100000023841858,0.0010000000474974513
0.3595671057701111,0.8199999928474426,0.37999221682548523,0.8100000023841858,0.0010000000474974513
0.34716686606407166,0.8100000023841858,0.3799419403076172,0.8100000023841858,0.0010000000474974513
0.3195149302482605,0.8500000238418579,0.37991446256637573,0.8100000023841858,0.0010000000474974513
0.3441096544265747,0.8299999833106995,0.37985146045684814,0.8100000023841858,0.0010000000474974513
0.3036717474460602,0.8600000143051147,0.3797611892223358,0.8100000023841858,0.0010000000474974513
0.3525409698486328,0.8700000047683716,0.37973350286483765,0.8100000023841858,0.0010000000474974513
0.3386588394641876,0.8399999737739563,0.3796773850917816,0.8100000023841858,0.0010000000474974513
0.33089879155158997,0.8500000238418579,0.37965771555900574,0.8100000023841858,0.0010000000474974513
0.30976349115371704,0.8500000238418579,0.3797047436237335,0.8100000023841858,0.0010000000474974513
0.32815665006637573,0.8600000143051147,0.37963807582855225,0.8100000023841858,0.0010000000474974513
0.32509884238243103,0.8299999833106995,0.37960368394851685,0.8100000023841858,0.0010000000474974513
0.3473741412162781,0.8199999928474426,0.37951773405075073,0.8100000023841858,0.0010000000474974513
0.3478844463825226,0.8600000143051147,0.37951305508613586,0.8100000023841858,0.0010000000474974513
0.309096097946167,0.8399999737739563,0.37950512766838074,0.8100000023841858,0.0010000000474974513
0.2978924512863159,0.8899999856948853,0.379451185464859,0.8100000023841858,0.0010000000474974513
0.3444998860359192,0.8700000047683716,0.3794651925563812,0.8100000023841858,0.0010000000474974513
0.3088572025299072,0.8399999737739563,0.3794536590576172,0.8100000023841858,0.0010000000474974513
0.3341591954231262,0.8199999928474426,0.3793361783027649,0.8100000023841858,0.0010000000474974513
0.3410930931568146,0.8100000023841858,0.3793191909790039,0.8100000023841858,0.0010000000474974513
0.35297662019729614,0.8799999952316284,0.37927210330963135,0.8100000023841858,0.0010000000474974513
0.32524681091308594,0.8600000143051147,0.37921619415283203,0.8100000023841858,0.0010000000474974513
0.3008338510990143,0.8799999952316284,0.37921199202537537,0.8100000023841858,0.0010000000474974513
0.32384762167930603,0.8500000238418579,0.3791346848011017,0.8100000023841858,0.0010000000474974513
0.31102851033210754,0.8600000143051147,0.37911173701286316,0.8100000023841858,0.0010000000474974513
0.29899856448173523,0.8700000047683716,0.3791528046131134,0.8100000023841858,0.0010000000474974513
0.3300579786300659,0.8299999833106995,0.3791077435016632,0.8100000023841858,0.0010000000474974513
0.3538908362388611,0.8299999833106995,0.37901198863983154,0.8100000023841858,0.0010000000474974513
0.30884355306625366,0.8500000238418579,0.3789769411087036,0.8100000023841858,0.0010000000474974513
0.3092905282974243,0.8799999952316284,0.3788948953151703,0.8100000023841858,0.0010000000474974513
0.33423298597335815,0.8399999737739563,0.3788760304450989,0.8100000023841858,0.0010000000474974513
0.32794180512428284,0.8600000143051147,0.37886565923690796,0.8100000023841858,0.0010000000474974513
0.3599586486816406,0.7799999713897705,0.37878188490867615,0.8100000023841858,0.0010000000474974513
0.3578711450099945,0.8500000238418579,0.3787493407726288,0.8100000023841858,0.0010000000474974513
0.314769446849823,0.8500000238418579,0.3786637485027313,0.8100000023841858,0.0010000000474974513
0.3503474295139313,0.8399999737739563,0.37862738966941833,0.8100000023841858,0.0010000000474974513
0.29906177520751953,0.8500000238418579,0.3785785436630249,0.8100000023841858,0.0010000000474974513
0.3304959237575531,0.8399999737739563,0.37850674986839294,0.8100000023841858,0.0010000000474974513
0.31579142808914185,0.8299999833106995,0.3784274160861969,0.8100000023841858,0.0010000000474974513
0.3199482262134552,0.8799999952316284,0.3784053325653076,0.8100000023841858,0.0010000000474974513
0.3436880111694336,0.8199999928474426,0.37835875153541565,0.8100000023841858,0.0010000000474974513
0.3279746174812317,0.8399999737739563,0.3783341646194458,0.8100000023841858,0.0010000000474974513
0.30771955847740173,0.8399999737739563,0.378244012594223,0.8100000023841858,0.0010000000474974513
0.30888131260871887,0.8299999833106995,0.3782247304916382,0.8100000023841858,0.0010000000474974513
0.3237191438674927,0.8500000238418579,0.37812381982803345,0.8100000023841858,0.0010000000474974513
0.3274277150630951,0.8500000238418579,0.37807315587997437,0.8100000023841858,0.0010000000474974513
0.31895047426223755,0.8500000238418579,0.378027081489563,0.8100000023841858,0.0010000000474974513
0.309147447347641,0.8700000047683716,0.3780141770839691,0.8100000023841858,0.0010000000474974513
0.3555535078048706,0.8100000023841858,0.37795570492744446,0.8100000023841858,0.0010000000474974513
0.355701744556427,0.8299999833106995,0.37797391414642334,0.8100000023841858,0.0010000000474974513
0.28857049345970154,0.8700000047683716,0.3779486417770386,0.8100000023841858,0.0010000000474974513
0.30363398790359497,0.8600000143051147,0.37789684534072876,0.8100000023841858,0.0010000000474974513
0.34367066621780396,0.8399999737739563,0.3778736889362335,0.8100000023841858,0.0010000000474974513
0.32591190934181213,0.8600000143051147,0.377898246049881,0.8100000023841858,0.0010000000474974513
0.3034490942955017,0.8700000047683716,0.37790384888648987,0.8100000023841858,0.0010000000474974513
0.3144030272960663,0.8899999856948853,0.3778337240219116,0.8100000023841858,0.0010000000474974513
0.3360041081905365,0.8299999833106995,0.3777822256088257,0.8100000023841858,0.0010000000474974513
0.31376609206199646,0.8299999833106995,0.3778015077114105,0.8100000023841858,0.0010000000474974513
0.3434760570526123,0.8700000047683716,0.3776722252368927,0.8100000023841858,0.0010000000474974513
0.3294242024421692,0.8399999737739563,0.3776809275150299,0.8100000023841858,0.0010000000474974513
0.3574485778808594,0.8100000023841858,0.3775653541088104,0.8100000023841858,0.0010000000474974513
0.3153735101222992,0.8799999952316284,0.3775412440299988,0.8100000023841858,0.0010000000474974513
0.3588114082813263,0.8199999928474426,0.3775266706943512,0.8100000023841858,0.0010000000474974513
0.3249833583831787,0.8399999737739563,0.3775073289871216,0.8100000023841858,0.0010000000474974513
0.3247270882129669,0.8500000238418579,0.3774796426296234,0.8100000023841858,0.0010000000474974513
0.3346461057662964,0.8399999737739563,0.3774164617061615,0.8100000023841858,0.0010000000474974513
0.3249797821044922,0.8299999833106995,0.3773912191390991,0.8100000023841858,0.0010000000474974513
0.32293373346328735,0.8600000143051147,0.3773459494113922,0.8100000023841858,0.0010000000474974513
0.3421942889690399,0.8500000238418579,0.37729209661483765,0.8100000023841858,0.0010000000474974513
0.3369123041629791,0.8199999928474426,0.37724000215530396,0.8100000023841858,0.0010000000474974513
0.3231038749217987,0.8500000238418579,0.3772008419036865,0.8100000023841858,0.0010000000474974513
0.3206145763397217,0.8399999737739563,0.37713491916656494,0.8100000023841858,0.0010000000474974513
0.3097061216831207,0.8799999952316284,0.377134770154953,0.8100000023841858,0.0010000000474974513
0.3139989376068115,0.8500000238418579,0.3770374357700348,0.8100000023841858,0.0010000000474974513
0.3388611078262329,0.8199999928474426,0.3769609332084656,0.8100000023841858,0.0010000000474974513
0.3420693278312683,0.8299999833106995,0.37687331438064575,0.8100000023841858,0.0010000000474974513
0.3079969584941864,0.8700000047683716,0.37685883045196533,0.8100000023841858,0.0010000000474974513
0.3066750466823578,0.8500000238418579,0.3768273890018463,0.8100000023841858,0.0010000000474974513
0.3416425287723541,0.8399999737739563,0.3767620027065277,0.8100000023841858,0.0010000000474974513
0.3103008270263672,0.8799999952316284,0.37671035528182983,0.8100000023841858,0.0010000000474974513
0.3237886428833008,0.8500000238418579,0.376672625541687,0.8100000023841858,0.0010000000474974513
0.31959211826324463,0.8600000143051147,0.37663620710372925,0.8100000023841858,0.0010000000474974513
0.33509790897369385,0.8299999833106995,0.37660667300224304,0.8100000023841858,0.0010000000474974513
0.33129486441612244,0.8399999737739563,0.3765392601490021,0.8100000023841858,0.0010000000474974513
0.3705288767814636,0.8299999833106995,0.3765474259853363,0.8100000023841858,0.0010000000474974513
0.3007000684738159,0.8799999952316284,0.37652257084846497,0.8100000023841858,0.0010000000474974513
0.32772988080978394,0.8399999737739563,0.37649330496788025,0.8100000023841858,0.0010000000474974513
0.30314522981643677,0.8500000238418579,0.37647536396980286,0.8100000023841858,0.0010000000474974513
0.31758663058280945,0.8500000238418579,0.3764340579509735,0.8100000023841858,0.0010000000474974513
0.3366517722606659,0.8199999928474426,0.3763543963432312,0.8100000023841858,0.0010000000474974513
0.3299836814403534,0.8399999737739563,0.37632858753204346,0.8100000023841858,0.0010000000474974513
0.39596447348594666,0.800000011920929,0.3762513995170593,0.8100000023841858,0.0010000000474974513
0.31029099225997925,0.8500000238418579,0.37617653608322144,0.8100000023841858,0.0010000000474974513
0.2540210783481598,0.9100000262260437,0.3761556148529053,0.8100000023841858,0.0010000000474974513
0.32297375798225403,0.8299999833106995,0.3761489987373352,0.8100000023841858,0.0010000000474974513
0.31317389011383057,0.8399999737739563,0.37614479660987854,0.8100000023841858,0.0010000000474974513
0.3054297864437103,0.8700000047683716,0.3761245310306549,0.8100000023841858,0.0010000000474974513
0.32057011127471924,0.8600000143051147,0.37611252069473267,0.8100000023841858,0.0010000000474974513
0.30258312821388245,0.8500000238418579,0.37610557675361633,0.8100000023841858,0.0010000000474974513
0.323639839887619,0.8700000047683716,0.37605515122413635,0.8100000023841858,0.0010000000474974513
0.34270477294921875,0.8500000238418579,0.37596017122268677,0.8100000023841858,0.0010000000474974513
0.34407320618629456,0.8199999928474426,0.37601238489151,0.8100000023841858,0.0010000000474974513
0.3452095091342926,0.8700000047683716,0.3760138750076294,0.8100000023841858,0.0010000000474974513
0.3361605703830719,0.8199999928474426,0.37597188353538513,0.8100000023841858,0.0010000000474974513
0.29302749037742615,0.8700000047683716,0.3759027123451233,0.8100000023841858,0.0010000000474974513
0.3350754976272583,0.8600000143051147,0.37585723400115967,0.8100000023841858,0.0010000000474974513
0.3196942210197449,0.8700000047683716,0.3758734464645386,0.8100000023841858,0.0010000000474974513
0.31101924180984497,0.8600000143051147,0.3758396804332733,0.8100000023841858,0.0010000000474974513
0.30187270045280457,0.8500000238418579,0.3758058249950409,0.8100000023841858,0.0010000000474974513
0.28625956177711487,0.8700000047683716,0.3757961392402649,0.8100000023841858,0.0010000000474974513
0.2952989637851715,0.8700000047683716,0.3758291006088257,0.8100000023841858,0.0010000000474974513
0.37365370988845825,0.8100000023841858,0.3758198618888855,0.8100000023841858,0.0010000000474974513
0.30219435691833496,0.8600000143051147,0.37580984830856323,0.8100000023841858,0.0010000000474974513
0.31798726320266724,0.8500000238418579,0.37574827671051025,0.8100000023841858,0.0010000000474974513
0.3077370226383209,0.8600000143051147,0.37573760747909546,0.8100000023841858,0.0010000000474974513
0.3369336426258087,0.8199999928474426,0.375657856464386,0.8100000023841858,0.0010000000474974513
0.3434847295284271,0.8399999737739563,0.3756088614463806,0.8100000023841858,0.0010000000474974513
0.3086063265800476,0.8399999737739563,0.37562981247901917,0.8100000023841858,0.0010000000474974513
0.3037775158882141,0.8799999952316284,0.37557587027549744,0.8100000023841858,0.0010000000474974513
0.33828601241111755,0.8399999737739563,0.3755638897418976,0.8100000023841858,0.0010000000474974513
0.3457756042480469,0.8299999833106995,0.37551796436309814,0.8100000023841858,0.0010000000474974513
0.33141639828681946,0.8700000047683716,0.3754732012748718,0.8100000023841858,0.0010000000474974513
0.29287710785865784,0.8799999952316284,0.37548255920410156,0.8100000023841858,0.0010000000474974513
0.30033913254737854,0.8600000143051147,0.37551406025886536,0.8100000023841858,0.0010000000474974513
0.3323160409927368,0.8399999737739563,0.3754543364048004,0.8100000023841858,0.0010000000474974513
0.3088761866092682,0.8700000047683716,0.3754264712333679,0.8100000023841858,0.0010000000474974513
0.31008899211883545,0.8600000143051147,0.3753868341445923,0.8100000023841858,0.0010000000474974513
0.26094192266464233,0.8700000047683716,0.3753565847873688,0.8100000023841858,0.0010000000474974513
0.33415356278419495,0.8399999737739563,0.3753211498260498,0.8100000023841858,0.0010000000474974513
0.312680721282959,0.8299999833106995,0.3752952218055725,0.8100000023841858,0.0010000000474974513
0.3232773542404175,0.8700000047683716,0.3752637505531311,0.8100000023841858,0.0010000000474974513
0.3159927725791931,0.8600000143051147,0.37524735927581787,0.8100000023841858,0.0010000000474974513
0.3506041467189789,0.8199999928474426,0.3752579092979431,0.8100000023841858,0.0010000000474974513
0.3292267322540283,0.8600000143051147,0.37516453862190247,0.8100000023841858,0.0010000000474974513
0.350574254989624,0.8399999737739563,0.37511923909187317,0.8100000023841858,0.0010000000474974513
0.3037897050380707,0.8600000143051147,0.3750407099723816,0.8199999928474426,0.0010000000474974513
0.3087073266506195,0.8700000047683716,0.3749813437461853,0.8199999928474426,0.0010000000474974513
0.3203822374343872,0.8199999928474426,0.3749545216560364,0.8199999928474426,0.0010000000474974513
0.31303468346595764,0.8199999928474426,0.3748958110809326,0.8199999928474426,0.0010000000474974513
0.3042290508747101,0.8399999737739563,0.3748202621936798,0.8199999928474426,0.0010000000474974513
0.35496535897254944,0.8399999737739563,0.3747985363006592,0.8199999928474426,0.0010000000474974513
0.32024016976356506,0.8299999833106995,0.3747739791870117,0.8199999928474426,0.0010000000474974513
0.32835522294044495,0.8600000143051147,0.37469249963760376,0.8199999928474426,0.0010000000474974513
0.2992945909500122,0.8199999928474426,0.3746662437915802,0.8199999928474426,0.0010000000474974513
0.298272967338562,0.8500000238418579,0.37465760111808777,0.8199999928474426,0.0010000000474974513
0.2939116358757019,0.8799999952316284,0.374637246131897,0.8199999928474426,0.0010000000474974513
0.3094104528427124,0.8500000238418579,0.37463852763175964,0.8199999928474426,0.0010000000474974513
0.3413907587528229,0.8399999737739563,0.3745884299278259,0.8199999928474426,0.0010000000474974513
0.2946780025959015,0.8600000143051147,0.37458550930023193,0.8199999928474426,0.0010000000474974513
0.3169594407081604,0.8199999928474426,0.37455111742019653,0.8199999928474426,0.0010000000474974513
0.2670012414455414,0.8700000047683716,0.3745080530643463,0.8199999928474426,0.0010000000474974513
0.33867576718330383,0.8299999833106995,0.37443843483924866,0.8199999928474426,0.0010000000474974513
0.3514644205570221,0.8399999737739563,0.3744501769542694,0.8199999928474426,0.0010000000474974513
0.32809504866600037,0.8399999737739563,0.3744383156299591,0.8199999928474426,0.0010000000474974513
0.35674887895584106,0.8399999737739563,0.37442928552627563,0.8199999928474426,0.0010000000474974513
0.3090224862098694,0.8399999737739563,0.3744584321975708,0.8199999928474426,0.0010000000474974513
0.3154642581939697,0.8299999833106995,0.374409019947052,0.8199999928474426,0.0010000000474974513
0.3319154381752014,0.8100000023841858,0.3743765950202942,0.8199999928474426,0.0010000000474974513
0.29567500948905945,0.8700000047683716,0.37438568472862244,0.8199999928474426,0.0010000000474974513
0.34384605288505554,0.8700000047683716,0.37437766790390015,0.8199999928474426,0.0010000000474974513
0.31452664732933044,0.8299999833106995,0.3743291199207306,0.8199999928474426,0.0010000000474974513
0.31344279646873474,0.8500000238418579,0.3742823898792267,0.8199999928474426,0.0010000000474974513
0.3545404076576233,0.8399999737739563,0.3742809295654297,0.8199999928474426,0.0010000000474974513
0.31979700922966003,0.8600000143051147,0.37425726652145386,0.8199999928474426,0.0010000000474974513
0.33640003204345703,0.8299999833106995,0.3742258548736572,0.8199999928474426,0.0010000000474974513
0.3188452124595642,0.8500000238418579,0.37420913577079773,0.8199999928474426,0.0010000000474974513
0.29932060837745667,0.8500000238418579,0.3741891384124756,0.8199999928474426,0.0010000000474974513
0.2885124683380127,0.8299999833106995,0.3740983307361603,0.8199999928474426,0.0010000000474974513
0.33860138058662415,0.8500000238418579,0.374116450548172,0.8199999928474426,0.0010000000474974513
0.34392356872558594,0.8500000238418579,0.3741333484649658,0.8199999928474426,0.0010000000474974513
0.3085280656814575,0.8700000047683716,0.37413614988327026,0.8199999928474426,0.0010000000474974513
0.3099120259284973,0.8600000143051147,0.3741208612918854,0.8199999928474426,0.0010000000474974513
0.3101182281970978,0.8299999833106995,0.3741159737110138,0.8199999928474426,0.0010000000474974513
0.3196050822734833,0.8399999737739563,0.3740922212600708,0.8199999928474426,0.0010000000474974513
0.2993331253528595,0.8899999856948853,0.3740718960762024,0.8199999928474426,0.0010000000474974513
0.29481858015060425,0.8899999856948853,0.3740493655204773,0.8199999928474426,0.0010000000474974513
0.3265218436717987,0.8700000047683716,0.37402233481407166,0.8199999928474426,0.0010000000474974513
0.3288222551345825,0.8399999737739563,0.37399232387542725,0.8199999928474426,0.0010000000474974513
0.31790411472320557,0.8600000143051147,0.3739892244338989,0.8199999928474426,0.0010000000474974513
0.30701273679733276,0.8899999856948853,0.3739730715751648,0.8199999928474426,0.0010000000474974513
0.32825690507888794,0.8500000238418579,0.37396496534347534,0.8199999928474426,0.0010000000474974513
0.2815837860107422,0.8799999952316284,0.3739487826824188,0.8199999928474426,0.0010000000474974513
0.28702446818351746,0.8700000047683716,0.3739137649536133,0.8199999928474426,0.0010000000474974513
0.3535233736038208,0.8399999737739563,0.37381893396377563,0.8199999928474426,0.0010000000474974513
0.2998189926147461,0.8600000143051147,0.3738294839859009,0.8199999928474426,0.0010000000474974513
0.298184871673584,0.8799999952316284,0.3738255202770233,0.8199999928474426,0.0010000000474974513
0.29205286502838135,0.8600000143051147,0.37384751439094543,0.8199999928474426,0.0010000000474974513
0.2973201274871826,0.8199999928474426,0.37383750081062317,0.8199999928474426,0.0010000000474974513
0.28360238671302795,0.8600000143051147,0.37384670972824097,0.8199999928474426,0.0010000000474974513
0.2882711887359619,0.8600000143051147,0.3738175928592682,0.8199999928474426,0.0010000000474974513
0.3066234886646271,0.8600000143051147,0.3737574815750122,0.8199999928474426,0.0010000000474974513
0.2987898588180542,0.8799999952316284,0.3737757205963135,0.8199999928474426,0.0010000000474974513
0.3315371572971344,0.8700000047683716,0.3736933767795563,0.8199999928474426,0.0010000000474974513
0.33436480164527893,0.8299999833106995,0.37362876534461975,0.8199999928474426,0.0010000000474974513
0.3337458670139313,0.8600000143051147,0.3735646903514862,0.8199999928474426,0.0010000000474974513
0.28696224093437195,0.8500000238418579,0.3735310733318329,0.8199999928474426,0.0010000000474974513
0.28038495779037476,0.8600000143051147,0.3735310435295105,0.8199999928474426,0.0010000000474974513
0.2905317544937134,0.8700000047683716,0.3734898865222931,0.8199999928474426,0.0010000000474974513
0.3429356515407562,0.8299999833106995,0.3734442889690399,0.8199999928474426,0.0010000000474974513
0.31519919633865356,0.8700000047683716,0.37342312932014465,0.8199999928474426,0.0010000000474974513
0.32706519961357117,0.8500000238418579,0.37339043617248535,0.8199999928474426,0.0010000000474974513
0.284037709236145,0.8700000047683716,0.3733660876750946,0.8199999928474426,0.0010000000474974513
0.2963544428348541,0.8700000047683716,0.3733614385128021,0.8199999928474426,0.0010000000474974513
0.326019287109375,0.8700000047683716,0.3733978271484375,0.8199999928474426,0.0010000000474974513
0.2881300449371338,0.8899999856948853,0.373411625623703,0.8199999928474426,0.0010000000474974513
0.2966727912425995,0.8700000047683716,0.37338608503341675,0.8199999928474426,0.0010000000474974513
0.32651835680007935,0.8199999928474426,0.37327849864959717,0.8199999928474426,0.0010000000474974513
0.32486218214035034,0.8299999833106995,0.37323886156082153,0.8199999928474426,0.0010000000474974513
0.3268938362598419,0.8500000238418579,0.3732037842273712,0.8199999928474426,0.0010000000474974513
0.3432563841342926,0.8600000143051147,0.3731740713119507,0.8199999928474426,0.0010000000474974513
0.3072996437549591,0.8700000047683716,0.37308743596076965,0.8199999928474426,0.0010000000474974513
0.3031490445137024,0.8500000238418579,0.372996062040329,0.8199999928474426,0.0010000000474974513
0.30757617950439453,0.8700000047683716,0.37299880385398865,0.8199999928474426,0.0010000000474974513
0.3221254348754883,0.8600000143051147,0.37293750047683716,0.8199999928474426,0.0010000000474974513
0.3194761276245117,0.8700000047683716,0.37295249104499817,0.8199999928474426,0.0010000000474974513
0.3377433717250824,0.8199999928474426,0.37284496426582336,0.8199999928474426,0.0010000000474974513
0.31743231415748596,0.8600000143051147,0.37283068895339966,0.8199999928474426,0.0010000000474974513
0.3027530312538147,0.8700000047683716,0.3727668523788452,0.8199999928474426,0.0010000000474974513
0.3181842565536499,0.8799999952316284,0.3727372884750366,0.8199999928474426,0.0010000000474974513
0.2920089662075043,0.8399999737739563,0.37271878123283386,0.8199999928474426,0.0010000000474974513
0.37958183884620667,0.8299999833106995,0.37265533208847046,0.8199999928474426,0.0010000000474974513
0.29345715045928955,0.8199999928474426,0.37272292375564575,0.8199999928474426,0.0010000000474974513
0.30877572298049927,0.8500000238418579,0.3726787567138672,0.8199999928474426,0.0010000000474974513
0.35323917865753174,0.800000011920929,0.372590035200119,0.8199999928474426,0.0010000000474974513
0.33514174818992615,0.8600000143051147,0.3725619614124298,0.8199999928474426,0.0010000000474974513
0.2847418785095215,0.8700000047683716,0.37252625823020935,0.8199999928474426,0.0010000000474974513
0.3149092197418213,0.8700000047683716,0.3724728524684906,0.8199999928474426,0.0010000000474974513
0.323088139295578,0.8299999833106995,0.372368723154068,0.8199999928474426,0.0010000000474974513
0.2933690547943115,0.8799999952316284,0.3723234534263611,0.8199999928474426,0.0010000000474974513
0.3091362714767456,0.8700000047683716,0.3722885549068451,0.8199999928474426,0.0010000000474974513
0.3042415678501129,0.8600000143051147,0.3722129762172699,0.8199999928474426,0.0010000000474974513
0.32575297355651855,0.8600000143051147,0.37217509746551514,0.8199999928474426,0.0010000000474974513
0.3290441632270813,0.8299999833106995,0.3721195161342621,0.8199999928474426,0.0010000000474974513
0.30487072467803955,0.8600000143051147,0.37207451462745667,0.8199999928474426,0.0010000000474974513
0.3276917636394501,0.8299999833106995,0.37202808260917664,0.8199999928474426,0.0010000000474974513
0.3284464180469513,0.8399999737739563,0.37200304865837097,0.8199999928474426,0.0010000000474974513
0.36547374725341797,0.8199999928474426,0.37193232774734497,0.8199999928474426,0.0010000000474974513
0.33768078684806824,0.8100000023841858,0.3719167709350586,0.8199999928474426,0.0010000000474974513
0.29798924922943115,0.8500000238418579,0.37188720703125,0.8199999928474426,0.0010000000474974513
0.3043363690376282,0.8700000047683716,0.3718719482421875,0.8199999928474426,0.0010000000474974513
0.299430787563324,0.8600000143051147,0.3718630075454712,0.8199999928474426,0.0010000000474974513
0.3134137988090515,0.8299999833106995,0.3718186914920807,0.8199999928474426,0.0010000000474974513
0.30417343974113464,0.8299999833106995,0.3718089163303375,0.8199999928474426,0.0010000000474974513
0.3342292010784149,0.8299999833106995,0.3718324899673462,0.8199999928474426,0.0010000000474974513
0.3002414107322693,0.8700000047683716,0.37185871601104736,0.8199999928474426,0.0010000000474974513
0.3041185736656189,0.8500000238418579,0.371773362159729,0.8199999928474426,0.0010000000474974513
0.28833815455436707,0.8799999952316284,0.37176159024238586,0.8199999928474426,0.0010000000474974513
0.31056955456733704,0.8500000238418579,0.3717462122440338,0.8199999928474426,0.0010000000474974513
0.36746910214424133,0.8399999737739563,0.3716675043106079,0.8199999928474426,0.0010000000474974513
0.3165290653705597,0.8299999833106995,0.3716161251068115,0.8199999928474426,0.0010000000474974513
0.3439885079860687,0.8199999928474426,0.37159910798072815,0.8199999928474426,0.0010000000474974513
0.30850574374198914,0.8399999737739563,0.3715776801109314,0.8199999928474426,0.0010000000474974513
0.29433104395866394,0.8799999952316284,0.3715219795703888,0.8199999928474426,0.0010000000474974513
0.34324634075164795,0.8299999833106995,0.3715253472328186,0.8199999928474426,0.0010000000474974513
0.3015647828578949,0.8500000238418579,0.37154194712638855,0.8199999928474426,0.0010000000474974513
0.3224714398384094,0.8299999833106995,0.37150686979293823,0.8199999928474426,0.0010000000474974513
0.30707794427871704,0.8399999737739563,0.3714473843574524,0.8199999928474426,0.0010000000474974513
0.31115207076072693,0.8500000238418579,0.37144890427589417,0.8199999928474426,0.0010000000474974513
0.3180297911167145,0.8199999928474426,0.37140345573425293,0.8199999928474426,0.0010000000474974513
0.33633705973625183,0.8199999928474426,0.3713815212249756,0.8199999928474426,0.0010000000474974513
0.2887292802333832,0.8500000238418579,0.37135088443756104,0.8199999928474426,0.0010000000474974513
0.31654730439186096,0.8500000238418579,0.37129902839660645,0.8199999928474426,0.0010000000474974513
0.31084734201431274,0.8399999737739563,0.3712384104728699,0.8199999928474426,0.0010000000474974513
0.30943435430526733,0.8399999737739563,0.3712257444858551,0.8199999928474426,0.0010000000474974513
0.3029738962650299,0.8600000143051147,0.37120556831359863,0.8199999928474426,0.0010000000474974513
0.3390764594078064,0.8199999928474426,0.37118834257125854,0.8199999928474426,0.0010000000474974513
0.29686135053634644,0.8500000238418579,0.37119725346565247,0.8199999928474426,0.0010000000474974513
0.3218105435371399,0.8299999833106995,0.3711731433868408,0.8199999928474426,0.0010000000474974513
0.2844087779521942,0.8799999952316284,0.37117287516593933,0.8199999928474426,0.0010000000474974513
0.28279340267181396,0.8600000143051147,0.37112465500831604,0.8199999928474426,0.0010000000474974513
0.3418256342411041,0.8500000238418579,0.3711053431034088,0.8199999928474426,0.0010000000474974513
0.31499966979026794,0.8199999928474426,0.37107008695602417,0.8199999928474426,0.0010000000474974513
0.33913037180900574,0.8199999928474426,0.3710196614265442,0.8199999928474426,0.0010000000474974513
0.3258585035800934,0.8399999737739563,0.3709803521633148,0.8199999928474426,0.0010000000474974513
0.3222556412220001,0.8399999737739563,0.370907187461853,0.8199999928474426,0.0010000000474974513
0.30852237343788147,0.8500000238418579,0.3709275424480438,0.8199999928474426,0.0010000000474974513
0.3158842921257019,0.8799999952316284,0.37092041969299316,0.8199999928474426,0.0010000000474974513
0.3147532343864441,0.8399999737739563,0.37087276577949524,0.8199999928474426,0.0010000000474974513
0.30803382396698,0.8700000047683716,0.37077975273132324,0.8199999928474426,0.0010000000474974513
0.3025423288345337,0.8399999737739563,0.3707578778266907,0.8199999928474426,0.0010000000474974513
0.2785842716693878,0.8799999952316284,0.37079644203186035,0.8199999928474426,0.0010000000474974513
0.29883232712745667,0.8500000238418579,0.37080082297325134,0.8199999928474426,0.0010000000474974513
0.31915125250816345,0.8500000238418579,0.3707447946071625,0.8199999928474426,0.0010000000474974513
0.30230391025543213,0.8600000143051147,0.3706822097301483,0.8199999928474426,0.0010000000474974513
0.32938191294670105,0.8299999833106995,0.3706907629966736,0.8199999928474426,0.0010000000474974513
0.3029707372188568,0.8600000143051147,0.37066197395324707,0.8199999928474426,0.0010000000474974513
0.3065253794193268,0.8899999856948853,0.3706302344799042,0.8199999928474426,0.0010000000474974513
0.3114825487136841,0.8700000047683716,0.3706439733505249,0.8199999928474426,0.0010000000474974513
0.2819700837135315,0.8600000143051147,0.3706457018852234,0.8199999928474426,0.0010000000474974513
0.33342480659484863,0.8199999928474426,0.3706226646900177,0.8199999928474426,0.0010000000474974513
0.28322964906692505,0.8999999761581421,0.3706269860267639,0.8199999928474426,0.0010000000474974513
0.3540598154067993,0.8399999737739563,0.3705478012561798,0.8199999928474426,0.0010000000474974513
0.29186689853668213,0.8500000238418579,0.37055283784866333,0.8199999928474426,0.0010000000474974513
0.29399237036705017,0.8700000047683716,0.37049058079719543,0.8199999928474426,0.0010000000474974513
0.29647693037986755,0.8799999952316284,0.3705039322376251,0.8199999928474426,0.0010000000474974513
0.3149966895580292,0.8399999737739563,0.37048232555389404,0.8199999928474426,0.0010000000474974513
0.3279082477092743,0.8600000143051147,0.37036770582199097,0.8199999928474426,0.0010000000474974513
0.2775452733039856,0.8700000047683716,0.37036392092704773,0.8199999928474426,0.0010000000474974513
0.33553221821784973,0.8399999737739563,0.37030959129333496,0.8199999928474426,0.0010000000474974513
0.31398746371269226,0.8399999737739563,0.3703248202800751,0.8199999928474426,0.0010000000474974513
0.27873682975769043,0.8799999952316284,0.37028953433036804,0.8199999928474426,0.0010000000474974513
0.3029344081878662,0.8799999952316284,0.3702249825000763,0.8199999928474426,0.0010000000474974513
0.3068229556083679,0.8600000143051147,0.37021490931510925,0.8199999928474426,0.0010000000474974513
0.2932239770889282,0.8799999952316284,0.37023597955703735,0.8199999928474426,0.0010000000474974513
0.28855404257774353,0.8700000047683716,0.370200514793396,0.8199999928474426,0.0010000000474974513
0.2897628843784332,0.8500000238418579,0.3701525926589966,0.8199999928474426,0.0010000000474974513
0.29401031136512756,0.8500000238418579,0.3701624274253845,0.8199999928474426,0.0010000000474974513
0.28860339522361755,0.8799999952316284,0.37017616629600525,0.8199999928474426,0.0010000000474974513
0.3024355471134186,0.8399999737739563,0.3701283633708954,0.8199999928474426,0.0010000000474974513
0.28359612822532654,0.8700000047683716,0.3700590431690216,0.8199999928474426,0.0010000000474974513
0.3053607642650604,0.8799999952316284,0.3700282573699951,0.8199999928474426,0.0010000000474974513
0.3336634039878845,0.8500000238418579,0.36998215317726135,0.8199999928474426,0.0010000000474974513
0.32907381653785706,0.8600000143051147,0.36991074681282043,0.8199999928474426,0.0010000000474974513
0.3258172273635864,0.8500000238418579,0.3697960674762726,0.8199999928474426,0.0010000000474974513
0.2539581060409546,0.8999999761581421,0.36984649300575256,0.8199999928474426,0.0010000000474974513
0.2729531228542328,0.8600000143051147,0.3698306679725647,0.8199999928474426,0.0010000000474974513
0.2993973195552826,0.8199999928474426,0.36981719732284546,0.8199999928474426,0.0010000000474974513
0.2540385127067566,0.8999999761581421,0.3697682321071625,0.8199999928474426,0.0010000000474974513
0.2889634966850281,0.8600000143051147,0.3697456419467926,0.8199999928474426,0.0010000000474974513
0.3248225748538971,0.8299999833106995,0.36968979239463806,0.8199999928474426,0.0010000000474974513
0.2736174464225769,0.8700000047683716,0.36971959471702576,0.8199999928474426,0.0010000000474974513
0.310184508562088,0.8500000238418579,0.3696991801261902,0.8199999928474426,0.0010000000474974513
0.2823212146759033,0.8500000238418579,0.3696752190589905,0.8199999928474426,0.0010000000474974513
0.29108017683029175,0.8399999737739563,0.36966758966445923,0.8199999928474426,0.0010000000474974513
0.28780969977378845,0.8700000047683716,0.36962249875068665,0.8199999928474426,0.0010000000474974513
0.3099665939807892,0.8399999737739563,0.3695492446422577,0.8199999928474426,0.0010000000474974513
0.30788910388946533,0.8500000238418579,0.3695250451564789,0.8199999928474426,0.0010000000474974513
0.3095243573188782,0.8500000238418579,0.36951950192451477,0.8199999928474426,0.0010000000474974513
0.30477070808410645,0.8500000238418579,0.3694656491279602,0.8199999928474426,0.0010000000474974513
0.29464030265808105,0.8399999737739563,0.3694196939468384,0.8199999928474426,0.0010000000474974513
0.3258652091026306,0.8299999833106995,0.36938363313674927,0.8199999928474426,0.0010000000474974513
0.31498298048973083,0.8199999928474426,0.36930516362190247,0.8199999928474426,0.0010000000474974513
0.3190385699272156,0.8600000143051147,0.36925822496414185,0.8199999928474426,0.0010000000474974513
0.3324284851551056,0.8399999737739563,0.3691885471343994,0.8199999928474426,0.0010000000474974513
0.3201603591442108,0.8500000238418579,0.3691524267196655,0.8199999928474426,0.0010000000474974513
0.2929503321647644,0.8299999833106995,0.36914578080177307,0.8199999928474426,0.0010000000474974513
0.33356213569641113,0.800000011920929,0.3690747022628784,0.8199999928474426,0.0010000000474974513
0.3211241662502289,0.8700000047683716,0.369010329246521,0.8199999928474426,0.0010000000474974513
0.33293208479881287,0.8299999833106995,0.36898642778396606,0.8199999928474426,0.0010000000474974513
0.34431004524230957,0.8399999737739563,0.36894094944000244,0.8199999928474426,0.0010000000474974513
0.27504557371139526,0.8600000143051147,0.3689001202583313,0.8199999928474426,0.0010000000474974513
0.31594744324684143,0.8299999833106995,0.36890149116516113,0.8199999928474426,0.0010000000474974513
0.3307565450668335,0.8199999928474426,0.36888134479522705,0.8199999928474426,0.0010000000474974513
0.2840287685394287,0.8700000047683716,0.368930459022522,0.8199999928474426,0.0010000000474974513
0.30779001116752625,0.8500000238418579,0.3688678741455078,0.8199999928474426,0.0010000000474974513
0.31077873706817627,0.8700000047683716,0.36878812313079834,0.8199999928474426,0.0010000000474974513
0.28945374488830566,0.8600000143051147,0.36876213550567627,0.8199999928474426,0.0010000000474974513
0.2625989019870758,0.8799999952316284,0.3686806559562683,0.8199999928474426,0.0010000000474974513
0.2802393436431885,0.8600000143051147,0.3686635494232178,0.8199999928474426,0.0010000000474974513
0.2862508296966553,0.8600000143051147,0.3686014413833618,0.8199999928474426,0.0010000000474974513
0.30803242325782776,0.8299999833106995,0.3685992360115051,0.8199999928474426,0.0010000000474974513
0.32794567942619324,0.8100000023841858,0.36857032775878906,0.8199999928474426,0.0010000000474974513
0.30924975872039795,0.8600000143051147,0.3685058653354645,0.8199999928474426,0.0010000000474974513
0.3230254650115967,0.8299999833106995,0.3684627115726471,0.8199999928474426,0.0010000000474974513
0.3429098427295685,0.8100000023841858,0.36836832761764526,0.8199999928474426,0.0010000000474974513
