loss,accuracy,val_loss,val_accuracy
0.2082982361316681,0.28600001335144043,0.1292497217655182,0.5837777853012085
0.11511559039354324,0.5839999914169312,0.10857416689395905,0.5837777853012085
0.10768335312604904,0.5839999914169312,0.10654813796281815,0.5837777853012085
0.10653916001319885,0.5839999914169312,0.10580883920192719,0.5837777853012085
0.10521507263183594,0.5839999914169312,0.1039426326751709,0.5837777853012085
0.1036740243434906,0.5839999914169312,0.10118702799081802,0.5837777853012085
0.09980505704879761,0.5799999833106995,0.09686203300952911,0.5837777853012085
0.09437098354101181,0.6039999723434448,0.0904305949807167,0.762666642665863
0.08593715727329254,0.6499999761581421,0.07999207079410553,0.79666668176651
0.07609066367149353,0.8159999847412109,0.06962921470403671,0.8564444184303284
0.06643933802843094,0.8740000128746033,0.06093674153089523,0.8568888902664185
0.05812180042266846,0.871999979019165,0.053814295679330826,0.8695555329322815
0.052612729370594025,0.8700000047683716,0.049246590584516525,0.8686666488647461
0.048528485000133514,0.8700000047683716,0.04597627371549606,0.8728888630867004
0.045914508402347565,0.8740000128746033,0.043839506804943085,0.8728888630867004
0.04371289536356926,0.871999979019165,0.04200878366827965,0.8773333430290222
0.04221368953585625,0.8740000128746033,0.04059447720646858,0.8775555491447449
0.04117584228515625,0.8740000128746033,0.03943072631955147,0.8806666731834412
0.03976918384432793,0.8799999952316284,0.038418713957071304,0.8822222352027893
0.03880477696657181,0.878000020980835,0.037613656371831894,0.8811110854148865
0.03804750367999077,0.8820000290870667,0.036767248064279556,0.8859999775886536
0.03717328980565071,0.8859999775886536,0.036139462143182755,0.8891111016273499
0.036461904644966125,0.8920000195503235,0.03550142049789429,0.8915555477142334
0.035858672112226486,0.8880000114440918,0.034906499087810516,0.8935555815696716
0.03531140089035034,0.8939999938011169,0.034431617707014084,0.8948888778686523
0.03479795530438423,0.8960000276565552,0.03400443494319916,0.8946666717529297
0.03422216325998306,0.8939999938011169,0.03372276574373245,0.895111083984375
0.03380821645259857,0.8939999938011169,0.0332004576921463,0.8975555300712585
0.033294517546892166,0.8980000019073486,0.0329376682639122,0.8971111178398132
0.03291473537683487,0.9020000100135803,0.032594989985227585,0.8984444737434387
0.032600998878479004,0.8960000276565552,0.0322653092443943,0.8997777700424194
0.03233179822564125,0.9039999842643738,0.03238828107714653,0.8960000276565552
0.03195201978087425,0.8999999761581421,0.031762246042490005,0.8999999761581421
0.03184020519256592,0.8980000019073486,0.031392231583595276,0.9024444222450256
0.03130529075860977,0.9079999923706055,0.031182793900370598,0.9020000100135803
0.0311269648373127,0.8980000019073486,0.031082483008503914,0.9004444479942322
0.030720576643943787,0.9160000085830688,0.030781833454966545,0.9035555720329285
0.0305468887090683,0.9039999842643738,0.030563462525606155,0.9031111001968384
0.030192337930202484,0.9160000085830688,0.03045976348221302,0.9013333320617676
0.02996322698891163,0.9120000004768372,0.0302581824362278,0.9031111001968384
0.0297277569770813,0.9160000085830688,0.030073609203100204,0.9039999842643738
0.02961677685379982,0.9120000004768372,0.030126288533210754,0.9002222418785095
0.029341433197259903,0.9120000004768372,0.029767636209726334,0.9024444222450256
0.029173539951443672,0.9160000085830688,0.02957398071885109,0.9042222499847412
0.028989892452955246,0.9139999747276306,0.02949332259595394,0.9044444561004639
0.028735879808664322,0.9139999747276306,0.029312917962670326,0.9037777781486511
0.028433239087462425,0.9160000085830688,0.02902737446129322,0.9071111083030701
0.028334684669971466,0.9179999828338623,0.02890331670641899,0.9068889021873474
0.028096912428736687,0.9179999828338623,0.028971761465072632,0.9044444561004639
0.028045887127518654,0.9160000085830688,0.028864329680800438,0.9042222499847412
0.027954762801527977,0.9139999747276306,0.028585387393832207,0.9073333144187927
0.027718963101506233,0.9139999747276306,0.028613552451133728,0.906000018119812
0.027534373104572296,0.9179999828338623,0.028332512825727463,0.9075555801391602
0.027382386848330498,0.9179999828338623,0.028268642723560333,0.9077777862548828
0.027302512899041176,0.9139999747276306,0.028326474130153656,0.9068889021873474
0.027233822271227837,0.921999990940094,0.028065718710422516,0.9082221984863281
0.026922233402729034,0.921999990940094,0.028164060786366463,0.9075555801391602
0.02685720846056938,0.921999990940094,0.028117025271058083,0.9073333144187927
0.02668699622154236,0.921999990940094,0.027824770659208298,0.9100000262260437
0.026562046259641647,0.921999990940094,0.027793247252702713,0.9091110825538635
0.026474812999367714,0.921999990940094,0.027718422934412956,0.9097777605056763
0.026400456205010414,0.921999990940094,0.027509119361639023,0.9122222065925598
0.026211341843008995,0.921999990940094,0.027645887807011604,0.9097777605056763
0.026225412264466286,0.921999990940094,0.027475649490952492,0.9122222065925598
0.026086697354912758,0.9200000166893005,0.02765529789030552,0.9100000262260437
0.025912459939718246,0.921999990940094,0.02727026306092739,0.9133333563804626
0.02586391009390354,0.921999990940094,0.02761618234217167,0.9095555543899536
0.025850582867860794,0.9200000166893005,0.027213042601943016,0.9139999747276306
0.025545740500092506,0.921999990940094,0.027385463938117027,0.9108889102935791
0.02544584684073925,0.921999990940094,0.027138276025652885,0.913777768611908
0.02543484792113304,0.921999990940094,0.02708950638771057,0.9139999747276306
0.02539065107703209,0.9200000166893005,0.02698150835931301,0.914222240447998
0.025200674310326576,0.9240000247955322,0.02695505879819393,0.9146666526794434
0.02499942108988762,0.921999990940094,0.026938077062368393,0.914222240447998
0.025003187358379364,0.921999990940094,0.026808809489011765,0.9146666526794434
0.024956529960036278,0.9240000247955322,0.026973150670528412,0.914222240447998
0.024683695286512375,0.921999990940094,0.02662586234509945,0.9160000085830688
0.024650968611240387,0.9240000247955322,0.02656903676688671,0.9162222146987915
0.02453763782978058,0.921999990940094,0.0267348550260067,0.9155555367469788
0.024436015635728836,0.921999990940094,0.026616273447871208,0.9160000085830688
0.024419449269771576,0.9240000247955322,0.02647298574447632,0.9168888926506042
0.024374229833483696,0.9240000247955322,0.026507427915930748,0.9164444208145142
0.024351220577955246,0.921999990940094,0.026227587834000587,0.9171110987663269
0.024126863107085228,0.9240000247955322,0.026474986225366592,0.9164444208145142
0.023958763107657433,0.921999990940094,0.026275895535945892,0.9166666865348816
0.02382417768239975,0.921999990940094,0.026259319856762886,0.9166666865348816
0.023889128118753433,0.921999990940094,0.026383068412542343,0.9166666865348816
0.023709736764431,0.921999990940094,0.026181338354945183,0.9173333048820496
0.0236769188195467,0.9240000247955322,0.02607651986181736,0.9168888926506042
0.023501640185713768,0.921999990940094,0.02621854841709137,0.9168888926506042
0.023353803902864456,0.9240000247955322,0.025972718372941017,0.9188888669013977
0.02340666949748993,0.9259999990463257,0.025953127071261406,0.917555570602417
0.02318088337779045,0.9240000247955322,0.026097901165485382,0.9168888926506042
0.023039912804961205,0.9240000247955322,0.025961952283978462,0.9177777767181396
0.023033728823065758,0.9259999990463257,0.025906121358275414,0.9177777767181396
0.022859791293740273,0.9300000071525574,0.02609194442629814,0.9182222485542297
0.022757720202207565,0.9259999990463257,0.025790471583604813,0.9177777767181396
0.022550083696842194,0.9279999732971191,0.025699511170387268,0.9179999828338623
0.02240549959242344,0.9300000071525574,0.025544237345457077,0.9182222485542297
0.022484635934233665,0.9259999990463257,0.025583451613783836,0.918666660785675
0.022224627435207367,0.9300000071525574,0.02558199129998684,0.9184444546699524
0.022093981504440308,0.9300000071525574,0.025370610877871513,0.9171110987663269
0.022184468805789948,0.9300000071525574,0.02537756972014904,0.9179999828338623
0.021758046001195908,0.9300000071525574,0.025350922718644142,0.9188888669013977
0.02185458317399025,0.9300000071525574,0.025315001606941223,0.9191111326217651
0.02158847637474537,0.9340000152587891,0.025398021563887596,0.9213333129882812
0.021505802869796753,0.9340000152587891,0.025161664932966232,0.9202222228050232
0.021207720041275024,0.9300000071525574,0.02511240728199482,0.9193333387374878
0.021116161718964577,0.9340000152587891,0.024989474564790726,0.9195555448532104
0.021122470498085022,0.9359999895095825,0.024851104244589806,0.9211111068725586
0.020819872617721558,0.9300000071525574,0.024987056851387024,0.9191111326217651
0.020753830671310425,0.9319999814033508,0.024981006979942322,0.9193333387374878
0.020524829626083374,0.9340000152587891,0.024788573384284973,0.9197777509689331
0.020439110696315765,0.9340000152587891,0.0247208159416914,0.9204444289207458
0.020358294248580933,0.9340000152587891,0.02481989562511444,0.9208889007568359
0.020247027277946472,0.9340000152587891,0.024730710312724113,0.9202222228050232
0.02029147930443287,0.9319999814033508,0.024678843095898628,0.9206666946411133
0.019954422488808632,0.9399999976158142,0.02445375919342041,0.9242222309112549
0.01989026740193367,0.9359999895095825,0.02454356662929058,0.9215555787086487
0.019780393689870834,0.9380000233650208,0.02434622496366501,0.9215555787086487
0.019619649276137352,0.9440000057220459,0.024430254474282265,0.9224444627761841
0.019717929884791374,0.9359999895095825,0.024444207549095154,0.9231111407279968
0.0193999744951725,0.9419999718666077,0.024397414177656174,0.9222221970558167
0.01936212368309498,0.9440000057220459,0.02435288578271866,0.9224444627761841
0.019280297681689262,0.9419999718666077,0.024199824780225754,0.9231111407279968
0.01921682246029377,0.9399999976158142,0.024221573024988174,0.9237777590751648
0.01901739090681076,0.9459999799728394,0.024253593757748604,0.9244444370269775
0.018896499648690224,0.9419999718666077,0.024017738178372383,0.9244444370269775
0.018943212926387787,0.9440000057220459,0.02411455474793911,0.9246666431427002
0.01877477951347828,0.9419999718666077,0.024056451395154,0.9246666431427002
0.018726971000432968,0.9459999799728394,0.024040983989834785,0.9266666769981384
0.018732860684394836,0.9480000138282776,0.023898780345916748,0.925777792930603
0.01865270361304283,0.949999988079071,0.023755645379424095,0.9264444708824158
0.01843281462788582,0.9459999799728394,0.023968899622559547,0.9248889088630676
0.0184039156883955,0.9480000138282776,0.02401629649102688,0.925777792930603
0.018358860164880753,0.949999988079071,0.02372642233967781,0.9264444708824158
0.018258141353726387,0.9480000138282776,0.02369515784084797,0.9262222051620483
0.018084855750203133,0.9539999961853027,0.023720014840364456,0.9277777671813965
0.018053703010082245,0.9520000219345093,0.02360117994248867,0.9264444708824158
0.018129553645849228,0.9480000138282776,0.02376716025173664,0.9251111149787903
0.01787588931620121,0.949999988079071,0.02350498177111149,0.9271110892295837
0.017778249457478523,0.949999988079071,0.023569686338305473,0.9266666769981384
0.01771845482289791,0.949999988079071,0.023576628416776657,0.9264444708824158
0.01760977692902088,0.9539999961853027,0.02367021143436432,0.9268888831138611
0.01753217726945877,0.9520000219345093,0.023612558841705322,0.9262222051620483
0.01735571026802063,0.9559999704360962,0.02349207177758217,0.9288889169692993
0.017499053850769997,0.9559999704360962,0.023458030074834824,0.9288889169692993
0.01730218715965748,0.949999988079071,0.023491479456424713,0.9264444708824158
0.017186874523758888,0.9580000042915344,0.023488279432058334,0.9277777671813965
0.017170961946249008,0.9539999961853027,0.023475412279367447,0.9266666769981384
0.017061270773410797,0.9520000219345093,0.023446744307875633,0.9295555353164673
0.0169980488717556,0.9559999704360962,0.02342616766691208,0.9288889169692993
0.01701274886727333,0.9580000042915344,0.023380590602755547,0.9288889169692993
0.016891920939087868,0.9559999704360962,0.023172499611973763,0.93022221326828
0.01690158061683178,0.9539999961853027,0.023469509556889534,0.9284444451332092
0.016918804496526718,0.9599999785423279,0.023233123123645782,0.9304444193840027
0.01684318482875824,0.9539999961853027,0.02319285273551941,0.9300000071525574
0.01667029596865177,0.9559999704360962,0.02322271652519703,0.9295555353164673
0.01666993834078312,0.9580000042915344,0.02327316626906395,0.9308888912200928
0.016582045704126358,0.9539999961853027,0.023119091987609863,0.9297778010368347
0.01652916520833969,0.9599999785423279,0.023140881210565567,0.9308888912200928
0.016354702413082123,0.9599999785423279,0.023037677630782127,0.93022221326828
0.01627635769546032,0.9599999785423279,0.023216592147946358,0.9308888912200928
0.01628096215426922,0.9599999785423279,0.023201659321784973,0.9308888912200928
0.016179965808987617,0.9620000123977661,0.02316887490451336,0.9311110973358154
0.016154173761606216,0.9599999785423279,0.02302219346165657,0.9311110973358154
0.01606420800089836,0.9620000123977661,0.02297223173081875,0.9311110973358154
0.016051875427365303,0.9620000123977661,0.022987227886915207,0.9315555691719055
0.01593337208032608,0.9639999866485596,0.023037929087877274,0.9308888912200928
0.01586635410785675,0.9639999866485596,0.02297222800552845,0.9315555691719055
0.015869271010160446,0.9639999866485596,0.022991981357336044,0.9313333630561829
0.015811780467629433,0.9620000123977661,0.022930139675736427,0.9322222471237183
0.015622563660144806,0.9639999866485596,0.02285904623568058,0.9322222471237183
0.01562022790312767,0.9639999866485596,0.022822866216301918,0.9326666593551636
0.015514133498072624,0.9639999866485596,0.02285679057240486,0.9317777752876282
0.015502799302339554,0.9639999866485596,0.022846292704343796,0.9317777752876282
0.015468054451048374,0.9620000123977661,0.022898823022842407,0.9311110973358154
0.015355730429291725,0.9639999866485596,0.02279774658381939,0.9324444532394409
0.015363018028438091,0.9639999866485596,0.022751761600375175,0.9333333373069763
0.015314742922782898,0.9620000123977661,0.022810861468315125,0.9317777752876282
0.015250267460942268,0.9639999866485596,0.022810546681284904,0.9324444532394409
0.015232278034090996,0.9620000123977661,0.022682592272758484,0.9326666593551636
0.015231973491609097,0.9639999866485596,0.022772975265979767,0.9324444532394409
0.015132571570575237,0.9639999866485596,0.02259836159646511,0.9346666932106018
0.015053260140120983,0.9620000123977661,0.022772355005145073,0.9328888654708862
0.015022793784737587,0.9639999866485596,0.02260556071996689,0.9324444532394409
0.015020794235169888,0.9660000205039978,0.022647254168987274,0.9328888654708862
0.014898517169058323,0.9660000205039978,0.022550489753484726,0.9346666932106018
0.014979653060436249,0.9660000205039978,0.02268592268228531,0.9326666593551636
0.01482862513512373,0.9660000205039978,0.02261217124760151,0.933555543422699
0.014769683592021465,0.9660000205039978,0.022644273936748505,0.9333333373069763
0.01470023300498724,0.9639999866485596,0.022496862336993217,0.933555543422699
0.014691499061882496,0.9639999866485596,0.022562911733984947,0.9324444532394409
0.014538596384227276,0.9660000205039978,0.022610923275351524,0.9333333373069763
0.014650879427790642,0.9660000205039978,0.022452665492892265,0.9340000152587891
0.0145800756290555,0.9660000205039978,0.02256913110613823,0.9333333373069763
0.014528178609907627,0.9660000205039978,0.022458313032984734,0.9337777495384216
0.014509125612676144,0.9639999866485596,0.022533053532242775,0.9344444274902344
0.014467442408204079,0.9660000205039978,0.022489041090011597,0.9340000152587891
0.014362870715558529,0.9660000205039978,0.022429004311561584,0.933555543422699
0.014384730719029903,0.9660000205039978,0.02254701592028141,0.9331111311912537
0.014372503384947777,0.9639999866485596,0.02236134186387062,0.9333333373069763
0.014260576106607914,0.9660000205039978,0.022410519421100616,0.9331111311912537
0.014211428351700306,0.9660000205039978,0.02242342382669449,0.9331111311912537
0.014233984984457493,0.9660000205039978,0.022428974509239197,0.9342222213745117
0.014125578105449677,0.9660000205039978,0.022466735914349556,0.9324444532394409
0.014122897759079933,0.9660000205039978,0.022411659359931946,0.9328888654708862
0.014076805673539639,0.9660000205039978,0.022407162934541702,0.9326666593551636
0.014023857191205025,0.9660000205039978,0.022427745163440704,0.9326666593551636
0.014053922146558762,0.9660000205039978,0.02236272394657135,0.9331111311912537
0.013883352279663086,0.9660000205039978,0.022370725870132446,0.9331111311912537
0.013927704654633999,0.9639999866485596,0.02246043086051941,0.9328888654708862
0.013888511806726456,0.9660000205039978,0.022297944873571396,0.9337777495384216
0.013816201128065586,0.9660000205039978,0.02229926735162735,0.9333333373069763
0.013890521600842476,0.9660000205039978,0.02226884849369526,0.9342222213745117
0.013742939569056034,0.9660000205039978,0.022336892783641815,0.9328888654708862
0.013693589717149734,0.9660000205039978,0.022361768409609795,0.9328888654708862
0.013702997006475925,0.9660000205039978,0.022386066615581512,0.9331111311912537
0.0138163510710001,0.9660000205039978,0.022204548120498657,0.9351111054420471
0.013662067241966724,0.9660000205039978,0.022296838462352753,0.9333333373069763
0.013673233799636364,0.9660000205039978,0.022438907995820045,0.9328888654708862
0.013577034696936607,0.9660000205039978,0.02236197143793106,0.9333333373069763
0.01347267720848322,0.9660000205039978,0.022222457453608513,0.9342222213745117
0.01351040881127119,0.9660000205039978,0.022267332300543785,0.933555543422699
0.013447246514260769,0.9660000205039978,0.022381195798516273,0.9331111311912537
0.013390550389885902,0.9660000205039978,0.02229641191661358,0.9337777495384216
0.013460355810821056,0.9660000205039978,0.022280054166913033,0.9340000152587891
0.013349863700568676,0.9660000205039978,0.022244637832045555,0.9328888654708862
0.013506867922842503,0.9660000205039978,0.022378433495759964,0.9328888654708862
0.013329758308827877,0.9660000205039978,0.02220088243484497,0.9346666932106018
0.013295440003275871,0.9660000205039978,0.022200074046850204,0.9348888993263245
0.013254749588668346,0.9660000205039978,0.022319022566080093,0.9333333373069763
0.013186058960855007,0.9660000205039978,0.02227141335606575,0.9333333373069763
0.013276446610689163,0.9679999947547913,0.02238883636891842,0.9324444532394409
0.01311568170785904,0.9679999947547913,0.022334128618240356,0.9333333373069763
0.013143754564225674,0.9679999947547913,0.02220146544277668,0.9340000152587891
0.013142075389623642,0.9679999947547913,0.022160574793815613,0.9348888993263245
0.013104341924190521,0.9679999947547913,0.022242194041609764,0.9331111311912537
0.013047350570559502,0.9679999947547913,0.022297289222478867,0.9333333373069763
0.012999482452869415,0.9679999947547913,0.02221005968749523,0.9342222213745117
0.012974653393030167,0.9679999947547913,0.022319868206977844,0.9333333373069763
0.012988734990358353,0.9679999947547913,0.0223047137260437,0.9331111311912537
0.012873906642198563,0.9679999947547913,0.022213906049728394,0.9331111311912537
0.01285217422991991,0.9679999947547913,0.022177623584866524,0.9337777495384216
0.012874821200966835,0.9679999947547913,0.022329241037368774,0.9328888654708862
0.01281008217483759,0.9679999947547913,0.022348012775182724,0.9328888654708862
0.01279490627348423,0.9679999947547913,0.022240450605750084,0.9344444274902344
0.013029181398451328,0.9679999947547913,0.022205790504813194,0.9342222213745117
0.012675696052610874,0.9679999947547913,0.022147586569190025,0.9340000152587891
0.012794047594070435,0.9660000205039978,0.022289365530014038,0.9333333373069763
0.012772463262081146,0.9679999947547913,0.022257650271058083,0.933555543422699
0.01265547052025795,0.9679999947547913,0.022128751501441002,0.933555543422699
0.012589134275913239,0.9679999947547913,0.0222605150192976,0.9340000152587891
0.012583842501044273,0.9679999947547913,0.02218998223543167,0.9340000152587891
0.012607267126441002,0.9679999947547913,0.022168109193444252,0.9337777495384216
0.012565400451421738,0.9679999947547913,0.022266952320933342,0.933555543422699
0.012619818560779095,0.9679999947547913,0.022251341491937637,0.9333333373069763
0.012542221695184708,0.9679999947547913,0.022194523364305496,0.933555543422699
0.01244358066469431,0.9679999947547913,0.02215842716395855,0.9344444274902344
0.012519781477749348,0.9679999947547913,0.022215476259589195,0.9333333373069763
0.012485004030168056,0.9679999947547913,0.022176392376422882,0.9340000152587891
0.01243180874735117,0.9679999947547913,0.022149575874209404,0.9346666932106018
0.012338289991021156,0.9679999947547913,0.022036848589777946,0.9344444274902344
0.012467925436794758,0.9679999947547913,0.02211662009358406,0.933555543422699
0.012576351873576641,0.9679999947547913,0.02203625626862049,0.9346666932106018
0.012338238768279552,0.9679999947547913,0.02210184931755066,0.9340000152587891
0.012291752733290195,0.9679999947547913,0.022212086245417595,0.9344444274902344
0.012272682040929794,0.9679999947547913,0.022053688764572144,0.9342222213745117
0.012276372872292995,0.9679999947547913,0.022102264687418938,0.9340000152587891
0.012253128923475742,0.9679999947547913,0.022188758477568626,0.9337777495384216
0.012358910404145718,0.9679999947547913,0.022140812128782272,0.9342222213745117
0.012247854843735695,0.9679999947547913,0.022183401510119438,0.9331111311912537
0.012246462516486645,0.9660000205039978,0.02215017005801201,0.9337777495384216
0.012196085415780544,0.9679999947547913,0.02226659283041954,0.933555543422699
0.012114076875150204,0.9679999947547913,0.022123344242572784,0.9342222213745117
0.012312662787735462,0.9679999947547913,0.02216767705976963,0.9340000152587891
0.012054214254021645,0.9679999947547913,0.022174281999468803,0.9340000152587891
0.012057843618094921,0.9679999947547913,0.02219414710998535,0.9337777495384216
0.012057519517838955,0.9679999947547913,0.022168822586536407,0.933555543422699
0.012050551362335682,0.9679999947547913,0.02214014157652855,0.9344444274902344
0.012213695794343948,0.9679999947547913,0.022222472354769707,0.9333333373069763
0.012248789891600609,0.9679999947547913,0.02216324396431446,0.9344444274902344
0.01200492400676012,0.9679999947547913,0.022144872695207596,0.9340000152587891
0.011929826810956001,0.9679999947547913,0.022199349477887154,0.9342222213745117
0.01196280401200056,0.9679999947547913,0.022213302552700043,0.933555543422699
0.011949518695473671,0.9679999947547913,0.022216830402612686,0.9342222213745117
0.011899289675056934,0.9679999947547913,0.022210178896784782,0.9328888654708862
0.011990409344434738,0.9679999947547913,0.02204887568950653,0.9342222213745117
0.011826952919363976,0.9679999947547913,0.02227816917002201,0.9331111311912537
0.011932747438549995,0.9679999947547913,0.022159116342663765,0.933555543422699
0.011849104426801205,0.9679999947547913,0.022124504670500755,0.9344444274902344
0.011816277168691158,0.9679999947547913,0.02210133522748947,0.9346666932106018
0.01175425760447979,0.9679999947547913,0.022135687991976738,0.9340000152587891
0.0117343133315444,0.9679999947547913,0.02214602194726467,0.9337777495384216
0.011729996651411057,0.9679999947547913,0.022250737994909286,0.9333333373069763
0.011734328232705593,0.9679999947547913,0.022102665156126022,0.9351111054420471
0.011739015579223633,0.9679999947547913,0.022036012262105942,0.9346666932106018
0.011716392822563648,0.9679999947547913,0.022102946415543556,0.9342222213745117
0.011705138720571995,0.9679999947547913,0.0220701415091753,0.9344444274902344
0.011728371493518353,0.9679999947547913,0.022210687398910522,0.9337777495384216
0.011748788878321648,0.9679999947547913,0.022134393453598022,0.9342222213745117
0.011661232449114323,0.9679999947547913,0.022042760625481606,0.9344444274902344
0.01166391372680664,0.9679999947547913,0.022205442190170288,0.933555543422699
0.011619113385677338,0.9679999947547913,0.022225316613912582,0.9333333373069763
0.011567153036594391,0.9679999947547913,0.02214677818119526,0.933555543422699
0.011678405106067657,0.9679999947547913,0.022241348400712013,0.9340000152587891
0.011576645076274872,0.9679999947547913,0.022250551730394363,0.9342222213745117
0.011542421765625477,0.9679999947547913,0.022132951766252518,0.9346666932106018
0.011499745771288872,0.9679999947547913,0.02208738401532173,0.9340000152587891
0.011525246314704418,0.9679999947547913,0.022102702409029007,0.9344444274902344
0.011514950543642044,0.9679999947547913,0.022221140563488007,0.9342222213745117
0.011551824398338795,0.9679999947547913,0.02224607951939106,0.9342222213745117
0.011482208967208862,0.9679999947547913,0.02212776616215706,0.9344444274902344
0.01146749034523964,0.9679999947547913,0.022093553096055984,0.9340000152587891
0.01141919195652008,0.9679999947547913,0.022268643602728844,0.9337777495384216
0.011419575661420822,0.9679999947547913,0.022112371399998665,0.9344444274902344
0.011412492953240871,0.9679999947547913,0.02215409465134144,0.9344444274902344
0.011501581408083439,0.9679999947547913,0.022226830944418907,0.9340000152587891
0.01149129867553711,0.9700000286102295,0.022205214947462082,0.9342222213745117
0.011345810256898403,0.9700000286102295,0.022191263735294342,0.9337777495384216
0.011414350010454655,0.9679999947547913,0.022214019671082497,0.9337777495384216
0.011399735696613789,0.9679999947547913,0.02216291055083275,0.9344444274902344
0.011314783245325089,0.9679999947547913,0.0221919696778059,0.9346666932106018
0.011334871873259544,0.9679999947547913,0.022140976041555405,0.9344444274902344
0.011312763206660748,0.9679999947547913,0.02208135463297367,0.9342222213745117
0.011283532716333866,0.9679999947547913,0.022134091705083847,0.9344444274902344
0.011255667544901371,0.9679999947547913,0.022148942574858665,0.9346666932106018
0.011240542866289616,0.9700000286102295,0.02215486951172352,0.9342222213745117
0.011294427327811718,0.9679999947547913,0.022222723811864853,0.9342222213745117
0.011274824850261211,0.9700000286102295,0.022094963118433952,0.9342222213745117
0.011231936514377594,0.9679999947547913,0.022162651643157005,0.9344444274902344
0.011220021173357964,0.9679999947547913,0.022214651107788086,0.9340000152587891
0.011227325536310673,0.9679999947547913,0.02204647846519947,0.9348888993263245
0.011344829574227333,0.9660000205039978,0.022058624774217606,0.9348888993263245
0.011259886436164379,0.9679999947547913,0.022295894101262093,0.9340000152587891
0.011196671053767204,0.9679999947547913,0.022162597626447678,0.9342222213745117
0.011126328259706497,0.9679999947547913,0.02210736647248268,0.9346666932106018
0.011244955472648144,0.9700000286102295,0.02210935205221176,0.9346666932106018
0.011148545891046524,0.9679999947547913,0.022165408357977867,0.9340000152587891
0.011134632863104343,0.9700000286102295,0.02247806079685688,0.9319999814033508
0.011125140823423862,0.9700000286102295,0.022153513506054878,0.9348888993263245
0.011170364916324615,0.9679999947547913,0.02221629023551941,0.9344444274902344
0.011036517098546028,0.9700000286102295,0.02221737429499626,0.9344444274902344
0.011081669479608536,0.9700000286102295,0.022165263071656227,0.9337777495384216
0.011051652021706104,0.9679999947547913,0.022287508472800255,0.9333333373069763
0.010990477167069912,0.9679999947547913,0.022224633023142815,0.9342222213745117
0.011049171909689903,0.9679999947547913,0.02216564118862152,0.9342222213745117
0.011065460741519928,0.9700000286102295,0.022104214876890182,0.9353333115577698
0.011073698289692402,0.9700000286102295,0.022342855110764503,0.9342222213745117
0.010982213541865349,0.9700000286102295,0.022221261635422707,0.9333333373069763
0.011115603148937225,0.9679999947547913,0.02219364047050476,0.9346666932106018
0.011036981828510761,0.9700000286102295,0.022228317335247993,0.9342222213745117
0.011012477800250053,0.9679999947547913,0.022189615294337273,0.9340000152587891
0.010906069539487362,0.9700000286102295,0.022323930636048317,0.9333333373069763
0.010914798825979233,0.9700000286102295,0.022238029167056084,0.933555543422699
0.010902881622314453,0.9679999947547913,0.022203464061021805,0.9344444274902344
0.010920688509941101,0.9700000286102295,0.022166240960359573,0.9340000152587891
0.010866330936551094,0.9700000286102295,0.022211888805031776,0.933555543422699
0.01094336062669754,0.9679999947547913,0.022321706637740135,0.9324444532394409
0.010868381708860397,0.9700000286102295,0.022163398563861847,0.9331111311912537
0.010811536572873592,0.9679999947547913,0.02221853844821453,0.933555543422699
0.010989272966980934,0.9700000286102295,0.022337647154927254,0.9337777495384216
0.010893394239246845,0.9679999947547913,0.022169368341565132,0.9344444274902344
0.010840234346687794,0.9700000286102295,0.02235262840986252,0.9328888654708862
0.010782983154058456,0.9679999947547913,0.022194428369402885,0.9333333373069763
0.010845605283975601,0.9700000286102295,0.022206956520676613,0.9331111311912537
0.010774125345051289,0.9679999947547913,0.02221529744565487,0.9326666593551636
0.010745908133685589,0.9700000286102295,0.022283555939793587,0.9324444532394409
0.010802901349961758,0.9700000286102295,0.022433431819081306,0.9326666593551636
0.010768834501504898,0.9679999947547913,0.022227512672543526,0.933555543422699
0.010756037198007107,0.9700000286102295,0.022261830046772957,0.9326666593551636
0.010829025879502296,0.9700000286102295,0.022106915712356567,0.9346666932106018
0.01075772289186716,0.9700000286102295,0.022228598594665527,0.9328888654708862
0.010785473510622978,0.9679999947547913,0.02226637862622738,0.9324444532394409
0.010724527761340141,0.9700000286102295,0.02221587486565113,0.9324444532394409
0.010715856216847897,0.9700000286102295,0.022309964522719383,0.9328888654708862
0.01071341522037983,0.9700000286102295,0.022177526727318764,0.9342222213745117
0.010685776360332966,0.9700000286102295,0.022401632741093636,0.9328888654708862
0.010744976811110973,0.9700000286102295,0.022239064797759056,0.9328888654708862
0.010845620185136795,0.9700000286102295,0.022096358239650726,0.933555543422699
0.010688724927604198,0.9679999947547913,0.022306788712739944,0.9326666593551636
0.010617044754326344,0.9700000286102295,0.0223192498087883,0.9331111311912537
0.010626072995364666,0.9700000286102295,0.022378576919436455,0.9326666593551636
0.010587272234261036,0.9700000286102295,0.022237522527575493,0.9337777495384216
0.010609633289277554,0.9700000286102295,0.02235986664891243,0.9324444532394409
0.010611625388264656,0.9700000286102295,0.022182831540703773,0.9331111311912537
0.010622186586260796,0.9679999947547913,0.022223256528377533,0.9331111311912537
0.010842559859156609,0.9700000286102295,0.022335274145007133,0.9324444532394409
0.010644950903952122,0.9700000286102295,0.022185098379850388,0.9333333373069763
0.010606535710394382,0.9700000286102295,0.02232407219707966,0.9324444532394409
0.010545764118432999,0.9700000286102295,0.022419793531298637,0.9324444532394409
0.010526706464588642,0.9700000286102295,0.022322043776512146,0.9326666593551636
0.010553098283708096,0.9700000286102295,0.02224765717983246,0.9324444532394409
0.010549687780439854,0.9700000286102295,0.02225428819656372,0.9328888654708862
0.010557811707258224,0.9679999947547913,0.022321831434965134,0.9322222471237183
0.010584495030343533,0.9679999947547913,0.022340958938002586,0.9322222471237183
0.01048095989972353,0.9700000286102295,0.022383447736501694,0.9322222471237183
0.010558325797319412,0.9679999947547913,0.022365354001522064,0.9324444532394409
0.010510978288948536,0.9700000286102295,0.022341620177030563,0.9322222471237183
0.010484454222023487,0.9700000286102295,0.022303128615021706,0.9331111311912537
0.010454593226313591,0.9700000286102295,0.022274598479270935,0.9331111311912537
0.010490297339856625,0.9700000286102295,0.022359473630785942,0.9328888654708862
0.01048305258154869,0.9700000286102295,0.022187747061252594,0.933555543422699
0.01051272451877594,0.9700000286102295,0.022363686934113503,0.9333333373069763
0.010575820691883564,0.9679999947547913,0.02213667333126068,0.9351111054420471
0.010470261797308922,0.9700000286102295,0.022346703335642815,0.9322222471237183
0.010470553301274776,0.9700000286102295,0.022409142926335335,0.9324444532394409
0.010462269186973572,0.9700000286102295,0.02229173295199871,0.9328888654708862
0.010404471307992935,0.9700000286102295,0.02231067232787609,0.9324444532394409
0.010494159534573555,0.9700000286102295,0.022158650681376457,0.9342222213745117
0.010437573306262493,0.9679999947547913,0.022372916340827942,0.9326666593551636
0.010466557927429676,0.9700000286102295,0.022445913404226303,0.9322222471237183
0.010460498742759228,0.9700000286102295,0.022405557334423065,0.9331111311912537
0.010416516102850437,0.9700000286102295,0.022391915321350098,0.9324444532394409
0.010304676368832588,0.9700000286102295,0.02240690402686596,0.9326666593551636
0.01036632526665926,0.9700000286102295,0.02246064506471157,0.9326666593551636
0.010330066084861755,0.9700000286102295,0.02229253575205803,0.9328888654708862
0.010272972285747528,0.9700000286102295,0.022385163232684135,0.9324444532394409
0.010387713089585304,0.9679999947547913,0.02234634943306446,0.9326666593551636
0.010367474518716335,0.9700000286102295,0.02234257385134697,0.9333333373069763
0.010273395106196404,0.9700000286102295,0.02228887937963009,0.9326666593551636
0.010284644551575184,0.9700000286102295,0.02235710807144642,0.9331111311912537
0.010251524858176708,0.9700000286102295,0.022296784445643425,0.9326666593551636
0.010241384617984295,0.9700000286102295,0.022347575053572655,0.9331111311912537
0.01028025895357132,0.9700000286102295,0.022362297400832176,0.9326666593551636
0.01027133408933878,0.9700000286102295,0.02226809784770012,0.9333333373069763
0.01023069117218256,0.9700000286102295,0.022432321682572365,0.933555543422699
0.010281876660883427,0.9700000286102295,0.022411098703742027,0.9326666593551636
0.010284757241606712,0.9700000286102295,0.02231277897953987,0.9331111311912537
0.01020200178027153,0.9700000286102295,0.022310800850391388,0.9331111311912537
0.010211416520178318,0.9700000286102295,0.02235477790236473,0.9331111311912537
0.010216920636594296,0.9700000286102295,0.02225342020392418,0.9328888654708862
0.010191860608756542,0.9700000286102295,0.022345922887325287,0.9331111311912537
0.010296376422047615,0.9700000286102295,0.022262021899223328,0.933555543422699
0.010228109546005726,0.9700000286102295,0.022325051948428154,0.9328888654708862
0.01028416957706213,0.9700000286102295,0.022244509309530258,0.9337777495384216
0.010157412849366665,0.9700000286102295,0.022469468414783478,0.9326666593551636
0.01017551589757204,0.9700000286102295,0.02235460840165615,0.9326666593551636
0.01014522835612297,0.9700000286102295,0.02236732840538025,0.9326666593551636
0.010143937543034554,0.9700000286102295,0.022437285631895065,0.9331111311912537
0.01023134496062994,0.9700000286102295,0.022329585626721382,0.9333333373069763
0.010175580158829689,0.9700000286102295,0.022491155192255974,0.9331111311912537
0.010164574719965458,0.9700000286102295,0.022302743047475815,0.9328888654708862
0.010167261585593224,0.9700000286102295,0.022512929514050484,0.9328888654708862
0.01012088917195797,0.9700000286102295,0.022520076483488083,0.9322222471237183
0.010113061405718327,0.9700000286102295,0.022428156808018684,0.9328888654708862
0.010169589892029762,0.9700000286102295,0.02240220457315445,0.9333333373069763
0.010088874027132988,0.9700000286102295,0.022278372198343277,0.9331111311912537
0.010186404921114445,0.9700000286102295,0.022573120892047882,0.9328888654708862
0.010132858529686928,0.9700000286102295,0.02238263003528118,0.9328888654708862
0.010119494050741196,0.9700000286102295,0.022438906133174896,0.9326666593551636
0.010187997482717037,0.9700000286102295,0.02233285829424858,0.9328888654708862
0.010059232823550701,0.9700000286102295,0.022510504350066185,0.9331111311912537
0.01017647422850132,0.9700000286102295,0.02226957678794861,0.9333333373069763
0.010151389054954052,0.9700000286102295,0.022431403398513794,0.9328888654708862
0.010025757364928722,0.9700000286102295,0.02225547283887863,0.9328888654708862
0.010000023990869522,0.9700000286102295,0.02252909541130066,0.9326666593551636
0.010010256431996822,0.9700000286102295,0.022353507578372955,0.9331111311912537
0.010058263316750526,0.9700000286102295,0.022498054429888725,0.9324444532394409
0.009973988868296146,0.9700000286102295,0.02244505286216736,0.9326666593551636
0.009960534051060677,0.9700000286102295,0.022555243223905563,0.9328888654708862
0.009977215901017189,0.9700000286102295,0.022527188062667847,0.9322222471237183
0.009971139021217823,0.9700000286102295,0.022351505234837532,0.9328888654708862
0.009932198561728,0.9700000286102295,0.02248571813106537,0.9328888654708862
0.010073916986584663,0.9700000286102295,0.02242077887058258,0.9326666593551636
0.009995735250413418,0.9700000286102295,0.022282913327217102,0.9328888654708862
0.010051807388663292,0.9700000286102295,0.022442791610956192,0.9333333373069763
0.010038930922746658,0.972000002861023,0.022604046389460564,0.9328888654708862
0.009966094046831131,0.9700000286102295,0.02261648140847683,0.9326666593551636
0.009906606748700142,0.972000002861023,0.02258286625146866,0.9331111311912537
0.00993350613862276,0.9700000286102295,0.02253645658493042,0.9328888654708862
0.009937907569110394,0.9700000286102295,0.022580107674002647,0.9319999814033508
0.009961037896573544,0.9700000286102295,0.022607868537306786,0.9333333373069763
0.009865333326160908,0.9700000286102295,0.022504067048430443,0.9326666593551636
0.009897484444081783,0.9700000286102295,0.02253377065062523,0.9326666593551636
0.009893575683236122,0.9700000286102295,0.022588297724723816,0.9328888654708862
0.009883781895041466,0.9700000286102295,0.022425802424550056,0.9326666593551636
0.009941941127181053,0.9700000286102295,0.022474365308880806,0.9326666593551636
0.009948198683559895,0.9700000286102295,0.022392647340893745,0.9326666593551636
0.00990907009691,0.972000002861023,0.02266388200223446,0.9328888654708862
0.010087327100336552,0.972000002861023,0.02246224507689476,0.9322222471237183
0.009918732568621635,0.9700000286102295,0.022615930065512657,0.9326666593551636
0.009842580184340477,0.972000002861023,0.022699059918522835,0.9322222471237183
0.009980452246963978,0.972000002861023,0.022747723385691643,0.9319999814033508
0.00978541187942028,0.972000002861023,0.022500738501548767,0.9324444532394409
0.009818891063332558,0.972000002861023,0.022538354620337486,0.9319999814033508
0.009841387160122395,0.9700000286102295,0.02240162529051304,0.9326666593551636
0.009885048493742943,0.972000002861023,0.022585144266486168,0.9331111311912537
0.009802776388823986,0.972000002861023,0.022442471235990524,0.9328888654708862
0.009752958081662655,0.972000002861023,0.022668980062007904,0.9324444532394409
0.009820849634706974,0.972000002861023,0.022555828094482422,0.9326666593551636
0.009802612476050854,0.9700000286102295,0.02253895252943039,0.9324444532394409
0.009779439307749271,0.972000002861023,0.02264176681637764,0.9326666593551636
0.009756921790540218,0.972000002861023,0.02280244417488575,0.9313333630561829
0.009761943481862545,0.9700000286102295,0.022622302174568176,0.9319999814033508
0.00979400984942913,0.972000002861023,0.0225179772824049,0.9328888654708862
0.009777622297406197,0.972000002861023,0.02267829328775406,0.9328888654708862
0.009764844551682472,0.9700000286102295,0.022532615810632706,0.9328888654708862
0.009738081134855747,0.972000002861023,0.022579798474907875,0.9331111311912537
0.00974802765995264,0.972000002861023,0.02271309122443199,0.9322222471237183
0.009753875434398651,0.972000002861023,0.022621214389801025,0.9319999814033508
0.009711597114801407,0.972000002861023,0.02260718308389187,0.9324444532394409
0.009720449335873127,0.972000002861023,0.022448094561696053,0.9328888654708862
0.009982733987271786,0.9679999947547913,0.02267622761428356,0.9315555691719055
0.009729684330523014,0.972000002861023,0.022753532975912094,0.9319999814033508
0.009673953987658024,0.972000002861023,0.02272704802453518,0.9317777752876282
0.009802565909922123,0.972000002861023,0.022898206487298012,0.9313333630561829
0.009653409011662006,0.972000002861023,0.02257387712597847,0.9322222471237183
0.009695488959550858,0.972000002861023,0.022630222141742706,0.9319999814033508
0.00971482414752245,0.972000002861023,0.022691719233989716,0.9326666593551636
0.009631237015128136,0.972000002861023,0.02262228913605213,0.9319999814033508
0.00965827889740467,0.972000002861023,0.0225449837744236,0.9326666593551636
0.009650284424424171,0.972000002861023,0.022683950141072273,0.9317777752876282
0.009676882065832615,0.972000002861023,0.022771038115024567,0.9319999814033508
0.009608672000467777,0.972000002861023,0.02266170270740986,0.9322222471237183
0.009611077606678009,0.972000002861023,0.022623859345912933,0.9317777752876282
0.009703523479402065,0.972000002861023,0.02291247807443142,0.9313333630561829
0.009668192826211452,0.972000002861023,0.02265331707894802,0.9324444532394409
0.009698126465082169,0.972000002861023,0.022678321227431297,0.9315555691719055
0.00961232092231512,0.972000002861023,0.0228483397513628,0.9313333630561829
0.009694467298686504,0.972000002861023,0.02262081764638424,0.9324444532394409
0.009603815153241158,0.972000002861023,0.022665753960609436,0.9326666593551636
0.009585278108716011,0.972000002861023,0.022621700540184975,0.9322222471237183
0.009619982913136482,0.972000002861023,0.022761667147278786,0.9319999814033508
0.009567927569150925,0.972000002861023,0.022631339728832245,0.9317777752876282
0.009591463953256607,0.972000002861023,0.02273131161928177,0.9315555691719055
0.00958058051764965,0.972000002861023,0.022668851539492607,0.9319999814033508
0.009611740708351135,0.972000002861023,0.0227030199021101,0.9315555691719055
0.009578248485922813,0.972000002861023,0.02283799834549427,0.9315555691719055
0.009692389518022537,0.972000002861023,0.022483745589852333,0.933555543422699
0.009598522447049618,0.972000002861023,0.022733010351657867,0.9319999814033508
0.009560338221490383,0.972000002861023,0.022872868925333023,0.9315555691719055
0.009507081471383572,0.972000002861023,0.022729435935616493,0.9313333630561829
0.009511571377515793,0.972000002861023,0.022751374170184135,0.9313333630561829
0.009512757882475853,0.972000002861023,0.02270708978176117,0.9317777752876282
0.00952637754380703,0.972000002861023,0.0227359551936388,0.9311110973358154
0.00955192930996418,0.972000002861023,0.022739848122000694,0.9313333630561829
0.009540594182908535,0.972000002861023,0.022893859073519707,0.9315555691719055
0.009521744213998318,0.972000002861023,0.022674718871712685,0.9324444532394409
0.009587123990058899,0.9739999771118164,0.023143617436289787,0.93022221326828
0.00955070462077856,0.9739999771118164,0.022884564474225044,0.9313333630561829
0.009559585712850094,0.972000002861023,0.022763418033719063,0.9315555691719055
0.009432499296963215,0.972000002861023,0.022732999175786972,0.9313333630561829
0.009460107423365116,0.972000002861023,0.022875089198350906,0.9306666851043701
0.009477095678448677,0.972000002861023,0.022839296609163284,0.9315555691719055
0.009475480765104294,0.972000002861023,0.02271457202732563,0.9317777752876282
0.009457159787416458,0.972000002861023,0.02279660291969776,0.9315555691719055
0.00948888435959816,0.972000002861023,0.02283492684364319,0.9313333630561829
0.009465514682233334,0.972000002861023,0.022939924150705338,0.9306666851043701
0.00942977424710989,0.972000002861023,0.022733155637979507,0.9315555691719055
0.00944924633949995,0.972000002861023,0.022792750969529152,0.9322222471237183
0.009426392614841461,0.972000002861023,0.02268926613032818,0.9313333630561829
0.009465758688747883,0.9760000109672546,0.022938445210456848,0.9315555691719055
0.009447494521737099,0.972000002861023,0.02278112806379795,0.9317777752876282
0.00936902966350317,0.972000002861023,0.02280481532216072,0.9317777752876282
0.009418097324669361,0.972000002861023,0.022635893896222115,0.9319999814033508
0.009421833790838718,0.972000002861023,0.02276529185473919,0.9315555691719055
0.009388606064021587,0.972000002861023,0.022937336936593056,0.9308888912200928
0.009424008429050446,0.972000002861023,0.0229817945510149,0.9317777752876282
0.00934520736336708,0.972000002861023,0.02275973930954933,0.9313333630561829
0.009407781064510345,0.972000002861023,0.022776830941438675,0.9315555691719055
0.009394016116857529,0.972000002861023,0.022666791453957558,0.9315555691719055
0.00942135974764824,0.972000002861023,0.022638235241174698,0.9313333630561829
0.009347422048449516,0.972000002861023,0.02282770164310932,0.9311110973358154
0.009500546380877495,0.9760000109672546,0.023083802312612534,0.9304444193840027
0.009297960437834263,0.9739999771118164,0.022651012986898422,0.9324444532394409
0.009384296834468842,0.972000002861023,0.022723432630300522,0.9311110973358154
0.009359258227050304,0.972000002861023,0.022808972746133804,0.9315555691719055
0.009534751065075397,0.972000002861023,0.023140346631407738,0.9304444193840027
0.009431003592908382,0.972000002861023,0.022726627066731453,0.9322222471237183
0.009354677051305771,0.972000002861023,0.022651242092251778,0.9326666593551636
0.009303456172347069,0.972000002861023,0.02279045060276985,0.9317777752876282
0.009294876828789711,0.972000002861023,0.022744782269001007,0.9319999814033508
0.009356622584164143,0.972000002861023,0.022699536755681038,0.9317777752876282
0.009257719852030277,0.972000002861023,0.023072727024555206,0.9304444193840027
0.009338601492345333,0.972000002861023,0.022853467613458633,0.9315555691719055
0.009258225560188293,0.972000002861023,0.022966336458921432,0.9306666851043701
0.009244775399565697,0.9739999771118164,0.022855786606669426,0.9313333630561829
0.009306351654231548,0.972000002861023,0.0229722261428833,0.9313333630561829
0.009321408346295357,0.972000002861023,0.022893955931067467,0.9315555691719055
0.0092467050999403,0.972000002861023,0.02280481345951557,0.9313333630561829
0.00925428792834282,0.972000002861023,0.022974884137511253,0.9313333630561829
0.009263546206057072,0.972000002861023,0.02280227653682232,0.9308888912200928
0.00923700537532568,0.972000002861023,0.02291952632367611,0.9311110973358154
0.009240147657692432,0.972000002861023,0.022978520020842552,0.9306666851043701
0.009219332598149776,0.9739999771118164,0.022886013612151146,0.9313333630561829
0.009237254038453102,0.972000002861023,0.022854404523968697,0.9313333630561829
0.009251073934137821,0.972000002861023,0.023018628358840942,0.9304444193840027
0.009334852918982506,0.972000002861023,0.022983873263001442,0.93022221326828
0.009200440719723701,0.9739999771118164,0.02312212996184826,0.93022221326828
0.009189565666019917,0.972000002861023,0.022959029302001,0.9304444193840027
0.009211825206875801,0.9739999771118164,0.022879432886838913,0.9308888912200928
0.009183651767671108,0.972000002861023,0.02296268567442894,0.9304444193840027
0.009188114665448666,0.972000002861023,0.02293749339878559,0.93022221326828
0.009168415330350399,0.972000002861023,0.022909455001354218,0.9304444193840027
0.009182308800518513,0.972000002861023,0.022931287065148354,0.9311110973358154
0.009263238869607449,0.9760000109672546,0.023008564487099648,0.9300000071525574
0.009238233789801598,0.972000002861023,0.023008713498711586,0.9304444193840027
0.00917957816272974,0.972000002861023,0.022994359955191612,0.9306666851043701
0.009245172142982483,0.9739999771118164,0.023068144917488098,0.9295555353164673
0.00915790069848299,0.972000002861023,0.022736307233572006,0.9313333630561829
0.009212583303451538,0.972000002861023,0.023131145164370537,0.9295555353164673
0.009196094237267971,0.972000002861023,0.023053687065839767,0.9308888912200928
0.009162814356386662,0.9739999771118164,0.02283542975783348,0.9306666851043701
0.009150777943432331,0.972000002861023,0.022925980389118195,0.9308888912200928
0.009183588437736034,0.972000002861023,0.023177359253168106,0.9300000071525574
0.009265858680009842,0.972000002861023,0.022944102063775063,0.9311110973358154
0.009236309677362442,0.9739999771118164,0.022975893691182137,0.9311110973358154
0.0090989014133811,0.972000002861023,0.022961707785725594,0.9304444193840027
0.00920005701482296,0.9739999771118164,0.022826462984085083,0.9308888912200928
0.00918114185333252,0.9739999771118164,0.023041948676109314,0.9293333292007446
0.009200328961014748,0.972000002861023,0.023061875253915787,0.93022221326828
0.009202606976032257,0.9739999771118164,0.02325720712542534,0.9293333292007446
0.00916995108127594,0.9739999771118164,0.023004626855254173,0.9311110973358154
0.009086969308555126,0.972000002861023,0.023026077076792717,0.9306666851043701
0.009081704542040825,0.972000002861023,0.022863540798425674,0.9322222471237183
0.009134955704212189,0.9760000109672546,0.02289666049182415,0.9313333630561829
0.009039807133376598,0.972000002861023,0.022886373102664948,0.9304444193840027
0.009166639298200607,0.972000002861023,0.023007024079561234,0.9306666851043701
0.00912362802773714,0.9739999771118164,0.022946294397115707,0.9300000071525574
0.009035397320985794,0.9739999771118164,0.023072559386491776,0.9288889169692993
0.009064579382538795,0.9739999771118164,0.02314186468720436,0.93022221326828
0.009037557058036327,0.9739999771118164,0.022963132709264755,0.9311110973358154
0.009021290577948093,0.9739999771118164,0.023053815588355064,0.9300000071525574
0.009046617895364761,0.972000002861023,0.023036131635308266,0.9306666851043701
0.008997946046292782,0.9739999771118164,0.02311738394200802,0.9297778010368347
0.009048573672771454,0.972000002861023,0.02306826412677765,0.9297778010368347
0.009086658246815205,0.9739999771118164,0.023076485842466354,0.9300000071525574
0.00901482068002224,0.9739999771118164,0.02302124910056591,0.9297778010368347
0.009040658362209797,0.9739999771118164,0.023088181391358376,0.9297778010368347
0.009103318676352501,0.9739999771118164,0.02299417555332184,0.9300000071525574
0.008991710841655731,0.9739999771118164,0.023083237931132317,0.9304444193840027
0.008998136967420578,0.9739999771118164,0.023101940751075745,0.93022221326828
0.008970245718955994,0.9739999771118164,0.023163605481386185,0.93022221326828
0.009024376049637794,0.972000002861023,0.023053472861647606,0.9311110973358154
0.009061678312718868,0.9760000109672546,0.02309272438287735,0.9304444193840027
0.008994096890091896,0.972000002861023,0.023027988150715828,0.9311110973358154
0.008997083641588688,0.972000002861023,0.023034365847706795,0.9311110973358154
0.008936061523854733,0.9739999771118164,0.023313920944929123,0.9297778010368347
0.009005488827824593,0.9760000109672546,0.02319467067718506,0.9304444193840027
0.009228905662894249,0.972000002861023,0.022930748760700226,0.9300000071525574
0.00920950062572956,0.9760000109672546,0.02302222140133381,0.9306666851043701
0.008922699838876724,0.9739999771118164,0.022941743955016136,0.9304444193840027
0.008920677937567234,0.9739999771118164,0.023096680641174316,0.93022221326828
0.008954732678830624,0.9739999771118164,0.023250801488757133,0.9297778010368347
0.00905535090714693,0.9739999771118164,0.023178650066256523,0.9295555353164673
0.008930557407438755,0.9739999771118164,0.023358719423413277,0.9293333292007446
0.008935250341892242,0.9779999852180481,0.023171018809080124,0.9295555353164673
0.008987253531813622,0.972000002861023,0.023015953600406647,0.9293333292007446
0.008838076144456863,0.9739999771118164,0.023261088877916336,0.9288889169692993
0.008938911370933056,0.9760000109672546,0.02336740307509899,0.9295555353164673
0.008995919488370419,0.9739999771118164,0.02342425473034382,0.9282222390174866
0.008900869637727737,0.9739999771118164,0.023308001458644867,0.9295555353164673
0.008838928304612637,0.9760000109672546,0.023101549595594406,0.9293333292007446
0.008914439007639885,0.9739999771118164,0.023135069757699966,0.9304444193840027
0.009019807912409306,0.9739999771118164,0.023020341992378235,0.9295555353164673
0.008910713717341423,0.9779999852180481,0.02328047901391983,0.9295555353164673
0.008963828906416893,0.9739999771118164,0.023086663335561752,0.9297778010368347
0.00884370319545269,0.9760000109672546,0.02324235439300537,0.9293333292007446
0.008886686526238918,0.9779999852180481,0.023198453709483147,0.9293333292007446
0.00887136161327362,0.9760000109672546,0.023241162300109863,0.9293333292007446
0.00883311778306961,0.9739999771118164,0.02318851463496685,0.9304444193840027
0.008859477937221527,0.9739999771118164,0.02317083813250065,0.9306666851043701
0.008881252259016037,0.972000002861023,0.023042744025588036,0.9295555353164673
0.008814271539449692,0.9739999771118164,0.023242253810167313,0.9293333292007446
0.008834565989673138,0.9739999771118164,0.023034360259771347,0.9295555353164673
0.008863384835422039,0.9739999771118164,0.023224307224154472,0.9304444193840027
0.008852027356624603,0.9739999771118164,0.02322278544306755,0.9295555353164673
0.008840248920023441,0.9739999771118164,0.023196937516331673,0.9293333292007446
0.008795913308858871,0.9760000109672546,0.02334420382976532,0.93022221326828
0.008826592937111855,0.9739999771118164,0.023288965225219727,0.9306666851043701
0.00879112258553505,0.9739999771118164,0.023204676806926727,0.9304444193840027
0.008852817118167877,0.9779999852180481,0.023442326113581657,0.9300000071525574
0.008728141896426678,0.9779999852180481,0.023084275424480438,0.9295555353164673
0.00891182292252779,0.972000002861023,0.023234065622091293,0.9304444193840027
0.008742865175008774,0.9760000109672546,0.02330731227993965,0.9304444193840027
0.00876268558204174,0.9760000109672546,0.023246003314852715,0.9297778010368347
0.00881307851523161,0.9779999852180481,0.02333604171872139,0.929111123085022
0.008771066553890705,0.9760000109672546,0.023051941767334938,0.929111123085022
0.008780548349022865,0.9739999771118164,0.023292796686291695,0.9293333292007446
0.008812579326331615,0.9779999852180481,0.02334054559469223,0.9308888912200928
0.00879613682627678,0.972000002861023,0.023203527554869652,0.9288889169692993
0.008798972703516483,0.9739999771118164,0.02347181737422943,0.93022221326828
0.008733781985938549,0.9739999771118164,0.02329377830028534,0.9297778010368347
0.008743448182940483,0.9779999852180481,0.02336965873837471,0.93022221326828
0.008702592924237251,0.9779999852180481,0.02323404885828495,0.9295555353164673
0.008793305605649948,0.9739999771118164,0.023268993943929672,0.9295555353164673
0.008800415322184563,0.9779999852180481,0.02323095314204693,0.9295555353164673
0.008818465285003185,0.9760000109672546,0.023253101855516434,0.9293333292007446
0.008702724240720272,0.9760000109672546,0.02333110384643078,0.9297778010368347
0.008692794479429722,0.9760000109672546,0.023381318897008896,0.9297778010368347
0.008683350868523121,0.9739999771118164,0.023443050682544708,0.9300000071525574
0.008689709939062595,0.9739999771118164,0.023239465430378914,0.9297778010368347
0.00874439999461174,0.9760000109672546,0.023436466231942177,0.9300000071525574
0.008831978775560856,0.9739999771118164,0.02319280244410038,0.9293333292007446
0.008654817007482052,0.9739999771118164,0.023373203352093697,0.9297778010368347
0.00875367596745491,0.9779999852180481,0.023490896448493004,0.929111123085022
0.008655393496155739,0.9779999852180481,0.023168131709098816,0.929111123085022
0.00871160440146923,0.972000002861023,0.023294443264603615,0.9297778010368347
0.008671537972986698,0.9779999852180481,0.02348230965435505,0.9306666851043701
0.008638937026262283,0.9760000109672546,0.02333998866379261,0.9295555353164673
0.008671565912663937,0.9739999771118164,0.02336718514561653,0.9293333292007446
0.008642055094242096,0.9779999852180481,0.023449290543794632,0.9295555353164673
0.008660546503961086,0.9779999852180481,0.023359496146440506,0.93022221326828
0.008658618666231632,0.9760000109672546,0.023400582373142242,0.9295555353164673
0.00863439030945301,0.9779999852180481,0.023627419024705887,0.9297778010368347
0.008648145012557507,0.9760000109672546,0.02323189750313759,0.929111123085022
0.008596888743340969,0.9739999771118164,0.023375006392598152,0.93022221326828
0.00859906431287527,0.9779999852180481,0.02354462258517742,0.93022221326828
0.008610091172158718,0.9779999852180481,0.023376256227493286,0.929111123085022
0.008646063506603241,0.9760000109672546,0.02339709922671318,0.9297778010368347
0.008664695546030998,0.9779999852180481,0.0234607495367527,0.93022221326828
0.008596987463533878,0.9779999852180481,0.02336731180548668,0.9304444193840027
0.008619972504675388,0.9739999771118164,0.023111188784241676,0.9306666851043701
0.00861856434494257,0.9739999771118164,0.023436246439814568,0.9300000071525574
0.008568992838263512,0.9779999852180481,0.023453030735254288,0.9295555353164673
0.008587952703237534,0.9760000109672546,0.02335309237241745,0.9293333292007446
0.008656218647956848,0.9779999852180481,0.023275086656212807,0.9300000071525574
0.00864881556481123,0.972000002861023,0.02321852557361126,0.9295555353164673
0.008595108054578304,0.9760000109672546,0.023364465683698654,0.9297778010368347
0.008543720468878746,0.9760000109672546,0.023504547774791718,0.9300000071525574
0.008567777462303638,0.9760000109672546,0.023482875898480415,0.9297778010368347
0.008646819740533829,0.9760000109672546,0.02349664270877838,0.93022221326828
0.008555121719837189,0.9779999852180481,0.023462839424610138,0.93022221326828
0.008553076535463333,0.9760000109672546,0.023295028135180473,0.9300000071525574
0.008539899252355099,0.9760000109672546,0.023445064201951027,0.9297778010368347
0.008609951473772526,0.9779999852180481,0.023526007309556007,0.93022221326828
0.008567548356950283,0.9760000109672546,0.023226208984851837,0.9300000071525574
0.008557653985917568,0.9760000109672546,0.02347278594970703,0.9293333292007446
0.008562390692532063,0.9760000109672546,0.02344600297510624,0.9300000071525574
0.008550575003027916,0.9760000109672546,0.02352789416909218,0.9295555353164673
0.008515843190252781,0.9779999852180481,0.023289110511541367,0.9297778010368347
0.008585294708609581,0.9760000109672546,0.02351270243525505,0.93022221326828
0.008564368821680546,0.9760000109672546,0.023537734523415565,0.9293333292007446
0.008536619134247303,0.9779999852180481,0.023686127737164497,0.9297778010368347
0.008472179062664509,0.9779999852180481,0.023375997319817543,0.9300000071525574
0.008507294580340385,0.9760000109672546,0.023355592042207718,0.929111123085022
0.00854639895260334,0.9760000109672546,0.023505840450525284,0.9297778010368347
0.008542482741177082,0.9760000109672546,0.023568633943796158,0.9295555353164673
0.008497542701661587,0.9760000109672546,0.023375634104013443,0.9300000071525574
0.008574222214519978,0.9779999852180481,0.02369038574397564,0.9300000071525574
0.008481424301862717,0.9779999852180481,0.02347605861723423,0.9297778010368347
0.008562695235013962,0.9739999771118164,0.023437267169356346,0.93022221326828
0.008500821888446808,0.9779999852180481,0.02363460883498192,0.9300000071525574
0.008673318661749363,0.9779999852180481,0.02337365411221981,0.93022221326828
0.008500871248543262,0.9779999852180481,0.023346899077296257,0.93022221326828
0.00853312574326992,0.9739999771118164,0.023314721882343292,0.9297778010368347
0.008419857360422611,0.9779999852180481,0.023620059713721275,0.9297778010368347
0.008485223166644573,0.9760000109672546,0.023483553901314735,0.9300000071525574
0.008448947221040726,0.9779999852180481,0.0236059483140707,0.93022221326828
0.00852993130683899,0.9760000109672546,0.023310240358114243,0.9306666851043701
0.008430960588157177,0.9760000109672546,0.02358173206448555,0.9300000071525574
0.008424697443842888,0.9779999852180481,0.023451976478099823,0.93022221326828
0.008434749208390713,0.9760000109672546,0.023534322157502174,0.9304444193840027
0.008484778925776482,0.9779999852180481,0.023487813770771027,0.9304444193840027
0.008442326448857784,0.9739999771118164,0.023461002856492996,0.9304444193840027
0.008446812629699707,0.9779999852180481,0.023558467626571655,0.9300000071525574
0.008404557593166828,0.9760000109672546,0.02345864102244377,0.93022221326828
0.008468450047075748,0.9760000109672546,0.0235668383538723,0.9293333292007446
0.008412091061472893,0.9760000109672546,0.023720238357782364,0.9297778010368347
0.008413364179432392,0.9760000109672546,0.023763507604599,0.9288889169692993
0.00836737360805273,0.9779999852180481,0.02377580851316452,0.9286666512489319
0.008388768881559372,0.9779999852180481,0.023706218227744102,0.9288889169692993
0.008447794243693352,0.9779999852180481,0.023500792682170868,0.9300000071525574
0.008443810045719147,0.9779999852180481,0.023579886183142662,0.9293333292007446
0.008370485156774521,0.9779999852180481,0.023644601926207542,0.929111123085022
0.008395465090870857,0.9779999852180481,0.02357434667646885,0.9295555353164673
0.008411755785346031,0.9779999852180481,0.023653225973248482,0.9297778010368347
0.008375334553420544,0.9779999852180481,0.02354089915752411,0.9297778010368347
0.008394191972911358,0.9779999852180481,0.023762336000800133,0.9295555353164673
0.00834860559552908,0.9779999852180481,0.023690350353717804,0.9297778010368347
0.008335946127772331,0.9779999852180481,0.023471243679523468,0.9300000071525574
0.008318701758980751,0.9760000109672546,0.023668784648180008,0.9297778010368347
0.00835290178656578,0.9779999852180481,0.023661501705646515,0.9295555353164673
0.008325371891260147,0.9779999852180481,0.02356545254588127,0.93022221326828
0.00835441518574953,0.9760000109672546,0.023607395589351654,0.9297778010368347
0.008387234061956406,0.9760000109672546,0.02380133606493473,0.9297778010368347
0.008357826620340347,0.9779999852180481,0.02370215766131878,0.9293333292007446
0.008330856449902058,0.9779999852180481,0.023577986285090446,0.9304444193840027
0.008333108387887478,0.9779999852180481,0.023564623668789864,0.9304444193840027
0.008463742211461067,0.9760000109672546,0.023622825741767883,0.9304444193840027
0.008303034119307995,0.9779999852180481,0.023789115250110626,0.9297778010368347
0.00839657336473465,0.9760000109672546,0.023703837767243385,0.9304444193840027
0.008317401632666588,0.9779999852180481,0.023754535242915154,0.9295555353164673
0.00831576343625784,0.9779999852180481,0.023585990071296692,0.9297778010368347
0.008424744009971619,0.9779999852180481,0.023931343108415604,0.929111123085022
0.008314233273267746,0.9760000109672546,0.023816321045160294,0.9288889169692993
0.008281996473670006,0.9779999852180481,0.023750964552164078,0.929111123085022
0.008347181603312492,0.9760000109672546,0.02374797873198986,0.9295555353164673
0.008274922147393227,0.9779999852180481,0.023850366473197937,0.9288889169692993
0.008287003263831139,0.9779999852180481,0.023745832964777946,0.9293333292007446
0.008260384202003479,0.9779999852180481,0.02375843934714794,0.9297778010368347
0.008258425630629063,0.9779999852180481,0.023570096120238304,0.9304444193840027
0.008276942186057568,0.9779999852180481,0.023716308176517487,0.9300000071525574
0.008254557847976685,0.9779999852180481,0.02355518378317356,0.9297778010368347
0.008297426626086235,0.9739999771118164,0.023676522076129913,0.9300000071525574
0.008265961892902851,0.9739999771118164,0.023714536800980568,0.9300000071525574
0.008259262889623642,0.9779999852180481,0.02377217635512352,0.929111123085022
0.008271249942481518,0.9779999852180481,0.023858344182372093,0.9288889169692993
0.008325225673615932,0.9760000109672546,0.023773614317178726,0.929111123085022
0.008274352177977562,0.9779999852180481,0.02375776320695877,0.9297778010368347
0.008346580900251865,0.9779999852180481,0.02384275197982788,0.9297778010368347
0.008258241228759289,0.9760000109672546,0.023709315806627274,0.9304444193840027
0.008263682946562767,0.9760000109672546,0.023575905710458755,0.9304444193840027
0.008259283378720284,0.9779999852180481,0.02379714511334896,0.9295555353164673
0.008242463693022728,0.9779999852180481,0.02365037240087986,0.9297778010368347
0.008252914063632488,0.9779999852180481,0.023690225556492805,0.9304444193840027
0.008213408291339874,0.9779999852180481,0.023712093010544777,0.9295555353164673
0.0082460418343544,0.9779999852180481,0.023923208937048912,0.929111123085022
0.00828663818538189,0.9779999852180481,0.023696504533290863,0.9293333292007446
0.00819707103073597,0.9779999852180481,0.02364661730825901,0.9304444193840027
0.008296731859445572,0.9779999852180481,0.023604940623044968,0.9297778010368347
0.008222409524023533,0.9779999852180481,0.023648258298635483,0.9300000071525574
0.00825068261474371,0.9760000109672546,0.023779070004820824,0.9300000071525574
0.008203179575502872,0.9779999852180481,0.023697705939412117,0.9304444193840027
0.008214287459850311,0.9779999852180481,0.02386046200990677,0.929111123085022
0.008208289742469788,0.9779999852180481,0.023737860843539238,0.9295555353164673
0.00819358415901661,0.9779999852180481,0.023801535367965698,0.9297778010368347
0.008195961825549603,0.9779999852180481,0.023816579952836037,0.9300000071525574
0.008162780664861202,0.9779999852180481,0.02385392226278782,0.9286666512489319
0.008246907964348793,0.9760000109672546,0.023694850504398346,0.93022221326828
0.008280477486550808,0.9779999852180481,0.023751284927129745,0.9293333292007446
0.008194835856556892,0.9779999852180481,0.023698365315794945,0.93022221326828
0.008203556761145592,0.9760000109672546,0.02383434772491455,0.929111123085022
0.008201567456126213,0.9779999852180481,0.023634687066078186,0.9304444193840027
0.008228570222854614,0.9760000109672546,0.023710979148745537,0.929111123085022
0.008127054199576378,0.9779999852180481,0.023825790733098984,0.9297778010368347
0.008161012083292007,0.9779999852180481,0.02387731522321701,0.9295555353164673
0.008237604983150959,0.9760000109672546,0.023706234991550446,0.9300000071525574
0.008341618813574314,0.9779999852180481,0.02411738783121109,0.9284444451332092
0.0081334775313735,0.9779999852180481,0.02373955212533474,0.93022221326828
0.008227036334574223,0.9739999771118164,0.0236151572316885,0.9288889169692993
0.008180526085197926,0.9760000109672546,0.023772859945893288,0.9297778010368347
0.008155514486134052,0.9779999852180481,0.023689987137913704,0.9304444193840027
0.00819227285683155,0.9779999852180481,0.023871060460805893,0.9293333292007446
0.008126865141093731,0.9779999852180481,0.023731833323836327,0.9308888912200928
0.008115733973681927,0.9779999852180481,0.023802505806088448,0.9300000071525574
0.00814682524651289,0.9779999852180481,0.023729026317596436,0.93022221326828
0.008119034580886364,0.9779999852180481,0.02384316921234131,0.9297778010368347
0.008215682581067085,0.9739999771118164,0.023705607280135155,0.9304444193840027
0.008154353126883507,0.9779999852180481,0.02385767363011837,0.9295555353164673
0.008167695254087448,0.9760000109672546,0.023731160908937454,0.929111123085022
0.008120988495647907,0.9779999852180481,0.023910239338874817,0.929111123085022
0.008174322545528412,0.9779999852180481,0.023674393072724342,0.93022221326828
0.008199121803045273,0.9779999852180481,0.02383382059633732,0.93022221326828
0.00807974673807621,0.9779999852180481,0.02370338886976242,0.9304444193840027
0.008096527308225632,0.9779999852180481,0.02379140816628933,0.9297778010368347
0.008121301420032978,0.9779999852180481,0.023759208619594574,0.9297778010368347
0.008090212941169739,0.9779999852180481,0.02384612150490284,0.9295555353164673
0.008148993365466595,0.9779999852180481,0.023840079084038734,0.929111123085022
0.008175109513103962,0.9760000109672546,0.02385064959526062,0.9293333292007446
0.00808020681142807,0.9779999852180481,0.023950155824422836,0.9295555353164673
0.008156649768352509,0.9760000109672546,0.02386537194252014,0.9295555353164673
0.008207899518311024,0.9779999852180481,0.024103300645947456,0.9282222390174866
0.008083408698439598,0.9779999852180481,0.023516381159424782,0.9306666851043701
0.00807887502014637,0.9779999852180481,0.023852746933698654,0.9300000071525574
0.008097732439637184,0.9779999852180481,0.02371949888765812,0.9308888912200928
0.00806825514882803,0.9779999852180481,0.023791126906871796,0.9304444193840027
0.00812844093888998,0.9760000109672546,0.023874452337622643,0.9293333292007446
0.008058561943471432,0.9779999852180481,0.02386528067290783,0.9300000071525574
0.008064822293817997,0.9779999852180481,0.02385309711098671,0.9300000071525574
0.00812634639441967,0.9779999852180481,0.023828884586691856,0.93022221326828
0.008089805953204632,0.9779999852180481,0.02403409406542778,0.9293333292007446
0.008050846867263317,0.9779999852180481,0.02379521168768406,0.9300000071525574
0.00804903358221054,0.9779999852180481,0.023803966119885445,0.9300000071525574
0.0080920634791255,0.9760000109672546,0.023857353255152702,0.9293333292007446
0.008094575256109238,0.9779999852180481,0.023792052641510963,0.9300000071525574
0.008124814368784428,0.9779999852180481,0.024023354053497314,0.9293333292007446
0.008052333258092403,0.9779999852180481,0.023872319608926773,0.9295555353164673
0.008043061010539532,0.9779999852180481,0.023838812485337257,0.93022221326828
0.008003488183021545,0.9779999852180481,0.023814361542463303,0.9297778010368347
0.00804099440574646,0.9779999852180481,0.023869698867201805,0.9300000071525574
0.007999352179467678,0.9779999852180481,0.0238611102104187,0.9293333292007446
0.008025441318750381,0.9779999852180481,0.024041760712862015,0.929111123085022
0.007984736934304237,0.9779999852180481,0.02383226342499256,0.93022221326828
0.008039687760174274,0.9779999852180481,0.023878660053014755,0.9297778010368347
0.00800247397273779,0.9779999852180481,0.023952776566147804,0.929111123085022
0.00800955668091774,0.9779999852180481,0.023780526593327522,0.9300000071525574
0.008035050705075264,0.9779999852180481,0.023836558684706688,0.9295555353164673
0.008002824150025845,0.9779999852180481,0.024034053087234497,0.9284444451332092
0.008024575188755989,0.9779999852180481,0.02393781766295433,0.9295555353164673
0.00802394188940525,0.9779999852180481,0.023963889107108116,0.9295555353164673
0.007972747087478638,0.9779999852180481,0.023897383362054825,0.9293333292007446
0.008029201067984104,0.9760000109672546,0.02368946745991707,0.9293333292007446
0.008062039501965046,0.9779999852180481,0.023952927440404892,0.9297778010368347
0.008031702600419521,0.9779999852180481,0.024113060906529427,0.9286666512489319
0.007984967902302742,0.9779999852180481,0.023983512073755264,0.929111123085022
0.007988138124346733,0.9779999852180481,0.02407003939151764,0.9295555353164673
0.00801942404359579,0.9779999852180481,0.023854028433561325,0.93022221326828
0.007967271842062473,0.9779999852180481,0.02381676249206066,0.9300000071525574
0.007986729964613914,0.9779999852180481,0.023940451443195343,0.9297778010368347
0.008032340556383133,0.9779999852180481,0.02380647137761116,0.9297778010368347
0.00792644638568163,0.9779999852180481,0.024101832881569862,0.9286666512489319
0.008019709028303623,0.9779999852180481,0.02402818389236927,0.9288889169692993
0.007963531650602818,0.9779999852180481,0.023827752098441124,0.9304444193840027
0.007948165759444237,0.9779999852180481,0.023959409445524216,0.9293333292007446
0.008010546676814556,0.9779999852180481,0.024018999189138412,0.9288889169692993
0.007981863804161549,0.9779999852180481,0.024095075204968452,0.9284444451332092
0.007948494516313076,0.9779999852180481,0.023825448006391525,0.9297778010368347
0.007958290167152882,0.9779999852180481,0.023920388892292976,0.9293333292007446
0.007929355837404728,0.9779999852180481,0.023923955857753754,0.9295555353164673
0.007998950779438019,0.9779999852180481,0.024023745208978653,0.929111123085022
0.00800082553178072,0.9779999852180481,0.024031810462474823,0.9293333292007446
0.007913369685411453,0.9779999852180481,0.02412005327641964,0.9286666512489319
0.007953854277729988,0.9779999852180481,0.02388187125325203,0.929111123085022
0.007908245548605919,0.9779999852180481,0.024046516045928,0.9288889169692993
0.007972135208547115,0.9779999852180481,0.02386394888162613,0.9300000071525574
0.007945416495203972,0.9779999852180481,0.023959321901202202,0.9295555353164673
0.008079929277300835,0.9779999852180481,0.024097653105854988,0.9286666512489319
0.007919307798147202,0.9779999852180481,0.024040188640356064,0.929111123085022
0.007920666597783566,0.9779999852180481,0.023947210982441902,0.9295555353164673
0.007908034138381481,0.9779999852180481,0.02407621219754219,0.9288889169692993
0.00790888350456953,0.9779999852180481,0.02405037172138691,0.9293333292007446
0.007893795147538185,0.9779999852180481,0.023928483948111534,0.9293333292007446
0.007943492382764816,0.9779999852180481,0.02398180402815342,0.9288889169692993
0.007946989499032497,0.9779999852180481,0.02386879362165928,0.9293333292007446
0.007902303710579872,0.9779999852180481,0.023895688354969025,0.9300000071525574
0.007890138775110245,0.9779999852180481,0.023975446820259094,0.9293333292007446
0.007920756936073303,0.9779999852180481,0.023932157084345818,0.9295555353164673
0.007887853309512138,0.9779999852180481,0.023878850042819977,0.9295555353164673
0.007937013171613216,0.9779999852180481,0.023851510137319565,0.9300000071525574
0.00790498312562704,0.9779999852180481,0.023935014382004738,0.9295555353164673
0.007966370321810246,0.9779999852180481,0.02393273264169693,0.9300000071525574
0.007879920303821564,0.9779999852180481,0.02396954596042633,0.9295555353164673
0.007930140011012554,0.9779999852180481,0.02392660267651081,0.9295555353164673
0.007925399579107761,0.9779999852180481,0.02401980757713318,0.9295555353164673
0.007865837775170803,0.9779999852180481,0.024111801758408546,0.929111123085022
0.007885199040174484,0.9779999852180481,0.024093961343169212,0.929111123085022
0.00785066094249487,0.9779999852180481,0.024101438000798225,0.9288889169692993
0.007867780514061451,0.9779999852180481,0.024017727002501488,0.9293333292007446
0.007902003824710846,0.9779999852180481,0.023862292990088463,0.9295555353164673
0.007918612100183964,0.9779999852180481,0.023920249193906784,0.9293333292007446
0.007849247194826603,0.9779999852180481,0.024108584970235825,0.9288889169692993
0.007883387617766857,0.9779999852180481,0.024039188399910927,0.929111123085022
0.007851826958358288,0.9779999852180481,0.02399817481637001,0.9293333292007446
0.00786129105836153,0.9779999852180481,0.023992018774151802,0.9293333292007446
0.007856568321585655,0.9779999852180481,0.02401586063206196,0.9288889169692993
0.007817259058356285,0.9779999852180481,0.024084797129034996,0.929111123085022
0.007883168756961823,0.9779999852180481,0.024062857031822205,0.9288889169692993
0.007829788140952587,0.9779999852180481,0.02425048127770424,0.9282222390174866
0.00784895196557045,0.9779999852180481,0.02397119253873825,0.9293333292007446
0.007822263054549694,0.9779999852180481,0.024091674014925957,0.9288889169692993
0.007852294482290745,0.9779999852180481,0.02408437803387642,0.9279999732971191
0.007805596571415663,0.9779999852180481,0.024197332561016083,0.9284444451332092
0.007840892300009727,0.9779999852180481,0.02409389056265354,0.9288889169692993
0.007841228507459164,0.9779999852180481,0.02412290871143341,0.9288889169692993
0.007859543897211552,0.9779999852180481,0.023956984281539917,0.929111123085022
0.007973306812345982,0.9779999852180481,0.02398270182311535,0.9297778010368347
0.007811546325683594,0.9779999852180481,0.023944608867168427,0.929111123085022
0.007801603060215712,0.9779999852180481,0.024058174341917038,0.929111123085022
0.007812248542904854,0.9779999852180481,0.024032026529312134,0.9286666512489319
0.007911221124231815,0.9779999852180481,0.024058524519205093,0.9286666512489319
0.00784637313336134,0.9779999852180481,0.02410868927836418,0.9282222390174866
0.007835743948817253,0.9779999852180481,0.024062540382146835,0.9288889169692993
0.007873516529798508,0.9779999852180481,0.02396579459309578,0.9293333292007446
0.007821576669812202,0.9779999852180481,0.024040458723902702,0.9288889169692993
0.00779362628236413,0.9779999852180481,0.02406054548919201,0.9282222390174866
0.007808266673237085,0.9779999852180481,0.024048585444688797,0.9286666512489319
0.007814004085958004,0.9779999852180481,0.0240551196038723,0.9286666512489319
0.007829725742340088,0.9779999852180481,0.024112336337566376,0.9286666512489319
0.007864745333790779,0.9779999852180481,0.024345358833670616,0.9279999732971191
0.00784847792237997,0.9779999852180481,0.024024253711104393,0.9293333292007446
0.007926947437226772,0.9779999852180481,0.02392948418855667,0.9297778010368347
0.00781515147536993,0.9779999852180481,0.02397756837308407,0.929111123085022
0.007776269689202309,0.9779999852180481,0.023969585075974464,0.9295555353164673
0.007779789622873068,0.9779999852180481,0.02413429319858551,0.9279999732971191
0.007840067148208618,0.9779999852180481,0.02404240518808365,0.9282222390174866
0.0077682011760771275,0.9779999852180481,0.024030353873968124,0.9286666512489319
0.007752843666821718,0.9779999852180481,0.02411549724638462,0.9282222390174866
0.0077762361615896225,0.9779999852180481,0.02419397421181202,0.9279999732971191
0.007762014400213957,0.9779999852180481,0.024279233068227768,0.9284444451332092
0.0077404845505952835,0.9779999852180481,0.0241294763982296,0.9286666512489319
0.007745507638901472,0.9779999852180481,0.024203741922974586,0.9282222390174866
0.007781850174069405,0.9779999852180481,0.02409907430410385,0.9279999732971191
0.007757176645100117,0.9779999852180481,0.024000678211450577,0.929111123085022
0.007739364169538021,0.9779999852180481,0.024127591401338577,0.9286666512489319
0.007792206946760416,0.9779999852180481,0.02427849732339382,0.9273333549499512
0.0077796196565032005,0.9779999852180481,0.024090224876999855,0.9284444451332092
0.007718944922089577,0.9779999852180481,0.024133654311299324,0.9286666512489319
0.0077304537408053875,0.9779999852180481,0.02423165924847126,0.9286666512489319
0.0078008039854466915,0.9779999852180481,0.024326162412762642,0.9271110892295837
0.007834339514374733,0.9779999852180481,0.024199826642870903,0.9279999732971191
0.007967936806380749,0.9779999852180481,0.024395447224378586,0.9268888831138611
0.00774458097293973,0.9779999852180481,0.024182233959436417,0.9284444451332092
0.007714938838034868,0.9779999852180481,0.02432084269821644,0.9268888831138611
0.007702380884438753,0.9779999852180481,0.024294720962643623,0.9277777671813965
0.0077310726046562195,0.9779999852180481,0.024079350754618645,0.929111123085022
0.007699979934841394,0.9779999852180481,0.024253644049167633,0.9286666512489319
0.0076981354504823685,0.9779999852180481,0.024192703887820244,0.9282222390174866
0.007715547922998667,0.9779999852180481,0.024268699809908867,0.9275555610656738
0.007671243045479059,0.9779999852180481,0.02417227067053318,0.9284444451332092
0.007677916437387466,0.9779999852180481,0.024122366681694984,0.9288889169692993
0.007721819914877415,0.9779999852180481,0.024338267743587494,0.9275555610656738
0.007679176516830921,0.9779999852180481,0.024327127262949944,0.9273333549499512
0.007759115658700466,0.9779999852180481,0.024167174473404884,0.9282222390174866
0.0077309939078986645,0.9779999852180481,0.0243920236825943,0.9275555610656738
0.0077003855258226395,0.9779999852180481,0.0241717342287302,0.9286666512489319
0.0076841930858790874,0.9779999852180481,0.024268634617328644,0.9282222390174866
0.007687545847147703,0.9779999852180481,0.024290939792990685,0.9275555610656738
0.007723319344222546,0.9779999852180481,0.024293838068842888,0.9279999732971191
0.00771721126511693,0.9779999852180481,0.024388860911130905,0.9268888831138611
0.007660084404051304,0.9779999852180481,0.02422400377690792,0.9286666512489319
0.007653992157429457,0.9779999852180481,0.02428385801613331,0.9275555610656738
0.007674172520637512,0.9779999852180481,0.0242677703499794,0.9275555610656738
0.007659418974071741,0.9779999852180481,0.02421741560101509,0.9284444451332092
0.007649834733456373,0.9779999852180481,0.02425641566514969,0.9277777671813965
0.0076769329607486725,0.9779999852180481,0.02415367402136326,0.9282222390174866
0.007724876049906015,0.9779999852180481,0.02438979782164097,0.9273333549499512
0.007714345119893551,0.9779999852180481,0.024156542494893074,0.9284444451332092
0.007657368667423725,0.9779999852180481,0.02439761534333229,0.9268888831138611
0.007655566558241844,0.9779999852180481,0.024243000894784927,0.9273333549499512
0.007625529542565346,0.9779999852180481,0.024225575849413872,0.9282222390174866
0.007647649385035038,0.9779999852180481,0.024341734126210213,0.9273333549499512
0.007673157379031181,0.9779999852180481,0.02427539974451065,0.9284444451332092
0.007703833281993866,0.9779999852180481,0.024063365533947945,0.9293333292007446
0.007678363472223282,0.9779999852180481,0.02430131658911705,0.9277777671813965
0.007615836802870035,0.9779999852180481,0.02414209581911564,0.9295555353164673
0.007646603509783745,0.9779999852180481,0.024163585156202316,0.929111123085022
0.0076245772652328014,0.9779999852180481,0.024231549352407455,0.9288889169692993
0.007660946808755398,0.9779999852180481,0.024117205291986465,0.9288889169692993
0.0076707941479980946,0.9779999852180481,0.024309715256094933,0.9282222390174866
0.007636553607881069,0.9779999852180481,0.02419542707502842,0.9284444451332092
0.00769181689247489,0.9779999852180481,0.024375811219215393,0.9275555610656738
0.007620863616466522,0.9779999852180481,0.024110252037644386,0.9284444451332092
0.007643489167094231,0.9779999852180481,0.02418198063969612,0.9293333292007446
0.007732251193374395,0.9779999852180481,0.02439103275537491,0.9277777671813965
0.007640522439032793,0.9779999852180481,0.024428416043519974,0.9271110892295837
0.007634172216057777,0.9779999852180481,0.024427492171525955,0.9273333549499512
0.007565648294985294,0.9779999852180481,0.024519242346286774,0.9264444708824158
0.007610158063471317,0.9779999852180481,0.02441152185201645,0.9271110892295837
0.0076057263650000095,0.9779999852180481,0.024259939789772034,0.9279999732971191
0.0076516419649124146,0.9779999852180481,0.024478498846292496,0.9268888831138611
0.007585180923342705,0.9779999852180481,0.024335844442248344,0.9275555610656738
0.0076685319654643536,0.9779999852180481,0.02430539019405842,0.9279999732971191
0.0075545646250247955,0.9779999852180481,0.024531492963433266,0.9262222051620483
0.007654963526874781,0.9779999852180481,0.024317411705851555,0.9277777671813965
0.007633370812982321,0.9779999852180481,0.024346275255084038,0.9284444451332092
0.007584945764392614,0.9779999852180481,0.02432769164443016,0.9279999732971191
0.0076225800439715385,0.9779999852180481,0.024444665759801865,0.9273333549499512
0.0075927008874714375,0.9779999852180481,0.024245180189609528,0.9284444451332092
0.007610330358147621,0.9779999852180481,0.02431103028357029,0.9282222390174866
0.007584699895232916,0.9779999852180481,0.024354690685868263,0.9279999732971191
0.00761604867875576,0.9779999852180481,0.024173777550458908,0.9293333292007446
0.007580004166811705,0.9779999852180481,0.024262461811304092,0.9288889169692993
0.007555834483355284,0.9779999852180481,0.024231668561697006,0.9282222390174866
0.007537793833762407,0.9779999852180481,0.024299971759319305,0.9284444451332092
0.007552993018180132,0.9779999852180481,0.024294570088386536,0.9277777671813965
0.007552214432507753,0.9779999852180481,0.024406366050243378,0.9273333549499512
0.007548268884420395,0.9779999852180481,0.024382220581173897,0.9273333549499512
0.007531690876930952,0.9779999852180481,0.024378078058362007,0.9279999732971191
0.007684872951358557,0.9779999852180481,0.024362700060009956,0.9275555610656738
0.007566250395029783,0.9779999852180481,0.024207377806305885,0.9284444451332092
0.00755838630720973,0.9779999852180481,0.02436068281531334,0.9279999732971191
0.007558201439678669,0.9779999852180481,0.024404305964708328,0.9271110892295837
0.007543371524661779,0.9779999852180481,0.024333909153938293,0.9275555610656738
0.007534220349043608,0.9779999852180481,0.02436002902686596,0.9279999732971191
0.0075249033980071545,0.9779999852180481,0.02440376579761505,0.9271110892295837
0.00753421476110816,0.9779999852180481,0.024343643337488174,0.9277777671813965
0.007580677513033152,0.9779999852180481,0.024185361340641975,0.9288889169692993
0.007567894645035267,0.9779999852180481,0.024345995858311653,0.9288889169692993
0.007560119032859802,0.9779999852180481,0.024220027029514313,0.9293333292007446
0.0075315251015126705,0.9779999852180481,0.02423480898141861,0.9293333292007446
0.007553405594080687,0.9779999852180481,0.024375300854444504,0.9273333549499512
0.007522947154939175,0.9779999852180481,0.024435432627797127,0.9275555610656738
0.007516368292272091,0.9779999852180481,0.024283256381750107,0.9279999732971191
0.007500988896936178,0.9779999852180481,0.024364827200770378,0.9271110892295837
0.00755459675565362,0.9779999852180481,0.024429304525256157,0.9275555610656738
0.007507230155169964,0.9779999852180481,0.024352815002202988,0.9277777671813965
0.007497726008296013,0.9779999852180481,0.02445848286151886,0.9273333549499512
0.007503676228225231,0.9779999852180481,0.02430405467748642,0.9275555610656738
0.007513492833822966,0.9779999852180481,0.02443164400756359,0.9271110892295837
0.007514095399528742,0.9779999852180481,0.024504566565155983,0.9271110892295837
0.007512010168284178,0.9779999852180481,0.0246044360101223,0.9266666769981384
0.0074953543953597546,0.9800000190734863,0.024448584765195847,0.9273333549499512
0.007513007149100304,0.9779999852180481,0.024458415806293488,0.9268888831138611
0.007535493932664394,0.9800000190734863,0.024245088919997215,0.9288889169692993
0.0075573245994746685,0.9800000190734863,0.024245215579867363,0.929111123085022
0.007472820580005646,0.9779999852180481,0.024179181084036827,0.929111123085022
0.0075475797057151794,0.9779999852180481,0.024478647857904434,0.9273333549499512
0.007473411969840527,0.9779999852180481,0.02449151873588562,0.9271110892295837
0.0074578747153282166,0.9800000190734863,0.02443060278892517,0.9275555610656738
0.0074854628182947636,0.9779999852180481,0.024444105103611946,0.9268888831138611
0.007439935579895973,0.9800000190734863,0.024401718750596046,0.9275555610656738
0.007496254984289408,0.9779999852180481,0.02466818317770958,0.9271110892295837
0.007481678389012814,0.9779999852180481,0.024561146274209023,0.9271110892295837
0.0074499971233308315,0.9800000190734863,0.024400848895311356,0.9275555610656738
0.00745833944529295,0.9800000190734863,0.024446558207273483,0.9284444451332092
0.00746333971619606,0.9779999852180481,0.02433360368013382,0.9279999732971191
0.007478960324078798,0.9800000190734863,0.024356605485081673,0.9279999732971191
0.007451321464031935,0.9779999852180481,0.024413611739873886,0.9282222390174866
0.007437578402459621,0.9800000190734863,0.024425309151411057,0.9271110892295837
0.007582462392747402,0.9760000109672546,0.024491149932146072,0.9277777671813965
0.007684886921197176,0.9800000190734863,0.024714523926377296,0.9255555272102356
0.007411435712128878,0.9800000190734863,0.024423589929938316,0.9279999732971191
0.007464488036930561,0.9779999852180481,0.02441410906612873,0.9279999732971191
0.007517026271671057,0.9800000190734863,0.024684812873601913,0.9259999990463257
0.007589949294924736,0.9779999852180481,0.024624697864055634,0.9275555610656738
0.007515843492001295,0.9800000190734863,0.024796240031719208,0.9262222051620483
0.007438819855451584,0.9800000190734863,0.0246806051582098,0.9268888831138611
0.007415300235152245,0.9800000190734863,0.024580763652920723,0.9266666769981384
0.0073778340592980385,0.9800000190734863,0.024547867476940155,0.9268888831138611
0.007409457582980394,0.9800000190734863,0.024451252073049545,0.9282222390174866
0.007412001956254244,0.9800000190734863,0.024502800777554512,0.9277777671813965
0.0074067977257072926,0.9800000190734863,0.02455104887485504,0.9268888831138611
0.007418748456984758,0.9800000190734863,0.024527793750166893,0.9268888831138611
0.007388708647340536,0.9800000190734863,0.02451888844370842,0.9282222390174866
0.007439068052917719,0.9800000190734863,0.02486235462129116,0.9246666431427002
0.007376435678452253,0.9800000190734863,0.024562345817685127,0.9273333549499512
0.007359677460044622,0.9800000190734863,0.024461137130856514,0.9279999732971191
0.007373725529760122,0.9800000190734863,0.02448326349258423,0.9279999732971191
0.007352765183895826,0.9800000190734863,0.024558819830417633,0.9271110892295837
0.0073857419192790985,0.9800000190734863,0.024608811363577843,0.9264444708824158
0.0073601119220256805,0.9800000190734863,0.02461668662726879,0.9262222051620483
0.007397208828479052,0.9800000190734863,0.024421965703368187,0.9282222390174866
0.00741216167807579,0.9800000190734863,0.024497374892234802,0.9279999732971191
0.007364199496805668,0.9800000190734863,0.024519558995962143,0.9277777671813965
0.007368652615696192,0.9800000190734863,0.02461293339729309,0.9275555610656738
0.007324368692934513,0.9800000190734863,0.024512529373168945,0.9282222390174866
0.00733357947319746,0.9800000190734863,0.02448321133852005,0.9288889169692993
0.007333165965974331,0.9800000190734863,0.02445044182240963,0.9279999732971191
0.007357745431363583,0.9800000190734863,0.024530978873372078,0.9277777671813965
0.007372706197202206,0.9800000190734863,0.02472730726003647,0.9266666769981384
0.007361899130046368,0.9800000190734863,0.024868560954928398,0.9253333210945129
0.0073532480746507645,0.9800000190734863,0.02473321743309498,0.925777792930603
0.007348943967372179,0.9800000190734863,0.024601973593235016,0.9268888831138611
0.007332781795412302,0.9800000190734863,0.024732351303100586,0.9259999990463257
0.00734343146905303,0.9800000190734863,0.02447899989783764,0.9282222390174866
0.00732989888638258,0.9800000190734863,0.024686429649591446,0.9266666769981384
0.007305656094104052,0.9800000190734863,0.02461661398410797,0.9271110892295837
0.0073081557638943195,0.9800000190734863,0.024577533826231956,0.9275555610656738
0.007326999679207802,0.9800000190734863,0.024554060772061348,0.9277777671813965
0.00730533804744482,0.9800000190734863,0.02483706921339035,0.9262222051620483
0.007337047718465328,0.9800000190734863,0.02483987621963024,0.925777792930603
0.007343962322920561,0.9800000190734863,0.024697067216038704,0.9268888831138611
0.007306598126888275,0.9800000190734863,0.024742066860198975,0.9262222051620483
0.007295436691492796,0.9800000190734863,0.024608829990029335,0.9273333549499512
0.007313059642910957,0.9800000190734863,0.02472827397286892,0.925777792930603
0.007296643685549498,0.9800000190734863,0.024588795378804207,0.9277777671813965
0.0073231845162808895,0.9800000190734863,0.024592934176325798,0.9277777671813965
0.0073309228755533695,0.9800000190734863,0.02466219663619995,0.9264444708824158
0.007314513437449932,0.9800000190734863,0.024644209071993828,0.9262222051620483
0.007313814014196396,0.9800000190734863,0.02454431913793087,0.9282222390174866
0.007282766047865152,0.9800000190734863,0.024648571386933327,0.9271110892295837
0.007315685972571373,0.9800000190734863,0.024581866338849068,0.9284444451332092
0.007313366513699293,0.9800000190734863,0.024488339200615883,0.9279999732971191
0.0073468987829983234,0.9800000190734863,0.024816740304231644,0.9268888831138611
0.007293437607586384,0.9800000190734863,0.024373803287744522,0.929111123085022
0.007282621692866087,0.9800000190734863,0.024585753679275513,0.9282222390174866
0.007319714408367872,0.9800000190734863,0.024604637175798416,0.9279999732971191
0.007260605692863464,0.9800000190734863,0.024553710594773293,0.9279999732971191
0.007261317688971758,0.9800000190734863,0.02462429739534855,0.9273333549499512
0.007252392824739218,0.9800000190734863,0.024550216272473335,0.9286666512489319
0.007265742868185043,0.9800000190734863,0.024582596495747566,0.9279999732971191
0.00723838759586215,0.9800000190734863,0.024573899805545807,0.9284444451332092
0.007290931884199381,0.9800000190734863,0.024506213143467903,0.9282222390174866
0.00730120949447155,0.9800000190734863,0.024734582751989365,0.9266666769981384
0.007305069826543331,0.9800000190734863,0.024459000676870346,0.9282222390174866
0.007239821366965771,0.9800000190734863,0.024579383432865143,0.9277777671813965
0.007258380297571421,0.9800000190734863,0.0245880838483572,0.9275555610656738
0.007302607409656048,0.9800000190734863,0.024585356935858727,0.9275555610656738
0.007210570387542248,0.9800000190734863,0.02469768188893795,0.9255555272102356
0.007231264840811491,0.9800000190734863,0.024700814858078957,0.9264444708824158
0.007214029785245657,0.9800000190734863,0.02446095272898674,0.9284444451332092
0.007233738899230957,0.9800000190734863,0.024438567459583282,0.9284444451332092
0.0072309826500713825,0.9800000190734863,0.024597492069005966,0.9279999732971191
0.0072196959517896175,0.9800000190734863,0.024544084444642067,0.9284444451332092
0.007266893517225981,0.9800000190734863,0.02458920329809189,0.9282222390174866
0.007193966768682003,0.9800000190734863,0.024694951251149178,0.9268888831138611
0.007226903922855854,0.9800000190734863,0.02459847554564476,0.9277777671813965
0.007238163612782955,0.9800000190734863,0.024653416126966476,0.9268888831138611
0.0072545986622571945,0.9800000190734863,0.024777458980679512,0.9262222051620483
0.007216146215796471,0.9800000190734863,0.02467944473028183,0.9277777671813965
0.007201101630926132,0.9800000190734863,0.024546140804886818,0.9279999732971191
0.007164228707551956,0.9800000190734863,0.02472679316997528,0.9266666769981384
0.00721936346963048,0.9800000190734863,0.024731731042265892,0.9259999990463257
0.007203672081232071,0.9800000190734863,0.024602193385362625,0.9282222390174866
0.007209743373095989,0.9800000190734863,0.024606430903077126,0.9277777671813965
0.007165887858718634,0.9800000190734863,0.024759503081440926,0.925777792930603
0.0071636405773460865,0.9800000190734863,0.02461317367851734,0.9271110892295837
0.007211196236312389,0.9800000190734863,0.024718595668673515,0.9273333549499512
0.007207454182207584,0.9800000190734863,0.024537522345781326,0.9284444451332092
0.007178484462201595,0.9800000190734863,0.02451057732105255,0.9284444451332092
0.007169265300035477,0.9800000190734863,0.024648496881127357,0.9275555610656738
0.007162262219935656,0.9800000190734863,0.02468690276145935,0.9271110892295837
0.00720890611410141,0.9800000190734863,0.024716805666685104,0.9266666769981384
0.007164226844906807,0.9800000190734863,0.024679142981767654,0.9271110892295837
0.007149406708776951,0.9800000190734863,0.024709245190024376,0.9264444708824158
0.007150106597691774,0.9800000190734863,0.024673890322446823,0.9268888831138611
0.007232635747641325,0.9800000190734863,0.024672186002135277,0.9277777671813965
0.007162101566791534,0.9800000190734863,0.024706484749913216,0.9266666769981384
0.007131436374038458,0.9800000190734863,0.02464923821389675,0.9275555610656738
0.007139440160244703,0.9800000190734863,0.02464994415640831,0.9273333549499512
0.007150036748498678,0.9800000190734863,0.02481660805642605,0.9266666769981384
0.007145178969949484,0.9800000190734863,0.02465285174548626,0.9273333549499512
0.007154184393584728,0.9800000190734863,0.024622226133942604,0.9282222390174866
0.007189658936113119,0.9800000190734863,0.02467704378068447,0.9271110892295837
0.0071370359510183334,0.9800000190734863,0.024768061935901642,0.9266666769981384
0.0071025025099515915,0.9800000190734863,0.024618806317448616,0.9273333549499512
0.007181474007666111,0.9800000190734863,0.024691008031368256,0.9271110892295837
0.007129682693630457,0.9800000190734863,0.02452779933810234,0.9284444451332092
0.007138944696635008,0.9800000190734863,0.02458479441702366,0.9286666512489319
0.007132467348128557,0.9800000190734863,0.024595314636826515,0.9279999732971191
0.007126730866730213,0.9800000190734863,0.024581599980592728,0.9277777671813965
0.007126728538423777,0.9800000190734863,0.024712739512324333,0.9273333549499512
0.007167758420109749,0.9800000190734863,0.02451934851706028,0.9286666512489319
0.007146816235035658,0.9800000190734863,0.0246222373098135,0.9282222390174866
0.007092239800840616,0.9800000190734863,0.02449190430343151,0.9288889169692993
0.007152150850743055,0.9800000190734863,0.024783212691545486,0.9268888831138611
0.007095655892044306,0.9800000190734863,0.024638939648866653,0.9277777671813965
0.007179764565080404,0.9800000190734863,0.024750635027885437,0.9277777671813965
0.007104838732630014,0.9800000190734863,0.024643046781420708,0.9284444451332092
0.007120240014046431,0.9800000190734863,0.024607308208942413,0.9279999732971191
0.007120715454220772,0.9800000190734863,0.024562329053878784,0.9286666512489319
0.007124819792807102,0.9800000190734863,0.024828407913446426,0.9271110892295837
0.007166118361055851,0.9800000190734863,0.024744728580117226,0.9275555610656738
0.007081621326506138,0.9800000190734863,0.02467915043234825,0.9275555610656738
0.007088002748787403,0.9800000190734863,0.02462473139166832,0.9277777671813965
0.007086147554218769,0.9800000190734863,0.02467721328139305,0.9273333549499512
0.007118580397218466,0.9800000190734863,0.024837518110871315,0.9268888831138611
0.007118189241737127,0.9800000190734863,0.02475161664187908,0.9271110892295837
0.007053671404719353,0.9800000190734863,0.024651389569044113,0.9275555610656738
0.0070664286613464355,0.9800000190734863,0.024646053090691566,0.9273333549499512
0.007087426725775003,0.9800000190734863,0.02472756803035736,0.9277777671813965
0.0070589869283139706,0.9800000190734863,0.024745672941207886,0.9271110892295837
0.00708494707942009,0.9800000190734863,0.02470836415886879,0.9275555610656738
0.00705757224932313,0.9800000190734863,0.02461126074194908,0.9284444451332092
0.007065960671752691,0.9800000190734863,0.024742141366004944,0.9271110892295837
0.007064799778163433,0.9800000190734863,0.024900736287236214,0.9266666769981384
0.007092274259775877,0.9800000190734863,0.024708211421966553,0.9275555610656738
0.007083517964929342,0.9800000190734863,0.024831682443618774,0.9273333549499512
0.007083785720169544,0.9800000190734863,0.024717209860682487,0.9279999732971191
0.007044640835374594,0.9800000190734863,0.024574942886829376,0.9288889169692993
0.007094952277839184,0.9800000190734863,0.024664992466568947,0.9279999732971191
0.007039467804133892,0.9800000190734863,0.02476392686367035,0.9277777671813965
0.007051522843539715,0.9800000190734863,0.024623166769742966,0.929111123085022
0.007048974744975567,0.9800000190734863,0.024648351594805717,0.9282222390174866
0.007078967522829771,0.9800000190734863,0.024690687656402588,0.9279999732971191
0.007054081652313471,0.9800000190734863,0.02483542263507843,0.9271110892295837
0.007054490968585014,0.9800000190734863,0.024805938825011253,0.9273333549499512
0.00705066928640008,0.9800000190734863,0.024762585759162903,0.9277777671813965
0.007002093363553286,0.9800000190734863,0.024804815649986267,0.9275555610656738
0.007028431631624699,0.9800000190734863,0.024767804890871048,0.9275555610656738
0.007000306621193886,0.9800000190734863,0.02487465739250183,0.9271110892295837
0.007020862773060799,0.9800000190734863,0.024634234607219696,0.9284444451332092
0.007022030185908079,0.9800000190734863,0.02463415265083313,0.9284444451332092
0.007057162467390299,0.9800000190734863,0.024760641157627106,0.9277777671813965
0.007018951699137688,0.9800000190734863,0.024792032316327095,0.9275555610656738
0.007022409234195948,0.9800000190734863,0.02467556670308113,0.9282222390174866
0.007037347182631493,0.9800000190734863,0.024821734055876732,0.9275555610656738
0.007021659519523382,0.9800000190734863,0.02460821345448494,0.9286666512489319
0.007006387691944838,0.9800000190734863,0.024983759969472885,0.9262222051620483
0.007043204270303249,0.9800000190734863,0.024868544191122055,0.9271110892295837
0.007002135273069143,0.9800000190734863,0.024934694170951843,0.9262222051620483
0.006983510684221983,0.9800000190734863,0.024780523031949997,0.9275555610656738
0.006993085611611605,0.9800000190734863,0.024847209453582764,0.9277777671813965
0.006976886186748743,0.9800000190734863,0.024786287918686867,0.9277777671813965
0.0069772060960531235,0.9800000190734863,0.024847542867064476,0.9277777671813965
0.006987724918872118,0.9800000190734863,0.024766843765974045,0.9275555610656738
0.006996906828135252,0.9800000190734863,0.024708949029445648,0.9277777671813965
0.007034899666905403,0.9800000190734863,0.02481132559478283,0.9277777671813965
0.007246756926178932,0.9819999933242798,0.02500627003610134,0.9268888831138611
0.0069800871424376965,0.9800000190734863,0.025380803272128105,0.9255555272102356
0.007053825538605452,0.9800000190734863,0.025025997310876846,0.9264444708824158
0.00696367584168911,0.9800000190734863,0.024874839931726456,0.9275555610656738
0.006972815841436386,0.9819999933242798,0.024922845885157585,0.9273333549499512
0.006953262723982334,0.9800000190734863,0.02509990520775318,0.9262222051620483
0.007016792893409729,0.9800000190734863,0.025003083050251007,0.9271110892295837
0.006984629202634096,0.9800000190734863,0.024894768372178078,0.9277777671813965
0.006969580426812172,0.9800000190734863,0.024874048307538033,0.9277777671813965
0.006927570328116417,0.9800000190734863,0.02482459880411625,0.9271110892295837
0.006940099410712719,0.9800000190734863,0.02493375912308693,0.9273333549499512
0.006975884083658457,0.9800000190734863,0.024798376485705376,0.9273333549499512
0.00695118959993124,0.9800000190734863,0.024859683588147163,0.9275555610656738
0.006941657047718763,0.9800000190734863,0.024881357327103615,0.9271110892295837
0.006944023072719574,0.9800000190734863,0.02484024129807949,0.9271110892295837
0.006937067024409771,0.9800000190734863,0.02482723630964756,0.9277777671813965
0.006940312217921019,0.9800000190734863,0.024859705939888954,0.9271110892295837
0.006974436342716217,0.9800000190734863,0.024949099868535995,0.9275555610656738
0.006976451259106398,0.9800000190734863,0.02499198354780674,0.9275555610656738
0.00698093930259347,0.9800000190734863,0.02481808513402939,0.9275555610656738
0.006914881989359856,0.9800000190734863,0.024876531213521957,0.9268888831138611
0.0069169229827821255,0.9800000190734863,0.024948114529252052,0.9275555610656738
0.006916616577655077,0.9800000190734863,0.02510831691324711,0.9259999990463257
0.006910327821969986,0.9800000190734863,0.02484751120209694,0.9271110892295837
0.0069162482395768166,0.9800000190734863,0.024914538487792015,0.9273333549499512
0.006911041680723429,0.9800000190734863,0.025051992386579514,0.9273333549499512
0.00693958904594183,0.9800000190734863,0.0248783677816391,0.9271110892295837
0.0069460151717066765,0.9800000190734863,0.02491489239037037,0.9273333549499512
0.0068743424490094185,0.9800000190734863,0.025017930194735527,0.9273333549499512
0.0068748327903449535,0.9800000190734863,0.024906737729907036,0.9275555610656738
0.006896795704960823,0.9800000190734863,0.02492426335811615,0.9275555610656738
0.006898823194205761,0.9800000190734863,0.024868549779057503,0.9273333549499512
0.006858609151095152,0.9800000190734863,0.024971377104520798,0.9273333549499512
0.006873145699501038,0.9800000190734863,0.024952325969934464,0.9275555610656738
0.006907936185598373,0.9800000190734863,0.024975227192044258,0.9273333549499512
0.006974884774535894,0.9800000190734863,0.025091063231229782,0.925777792930603
0.006858866196125746,0.9800000190734863,0.024906594306230545,0.9273333549499512
0.006898471154272556,0.9800000190734863,0.02498108334839344,0.9275555610656738
0.006852747406810522,0.9800000190734863,0.024928376078605652,0.9271110892295837
0.0068953391164541245,0.9819999933242798,0.024991236627101898,0.9268888831138611
0.006986414548009634,0.9800000190734863,0.02495063655078411,0.9268888831138611
0.006863846909254789,0.9800000190734863,0.024988900870084763,0.9275555610656738
0.006873896345496178,0.9800000190734863,0.024947820231318474,0.9273333549499512
0.006893486250191927,0.9800000190734863,0.0249312836676836,0.9271110892295837
0.006875771563500166,0.9800000190734863,0.02506110817193985,0.9271110892295837
0.0068992567248642445,0.9800000190734863,0.024853408336639404,0.9286666512489319
0.006881808862090111,0.9800000190734863,0.025044120848178864,0.9275555610656738
0.006916755344718695,0.9800000190734863,0.024906570091843605,0.9279999732971191
0.0068268924951553345,0.9800000190734863,0.024962730705738068,0.9279999732971191
0.006886065937578678,0.9800000190734863,0.024788131937384605,0.9286666512489319
0.006921555381268263,0.9800000190734863,0.024913951754570007,0.9284444451332092
0.006840277463197708,0.9800000190734863,0.025099240243434906,0.9277777671813965
0.006828537210822105,0.9800000190734863,0.02490035630762577,0.9277777671813965
0.006838666740804911,0.9800000190734863,0.024980831891298294,0.9273333549499512
0.006860120687633753,0.9819999933242798,0.024923691526055336,0.9279999732971191
0.006940679159015417,0.9800000190734863,0.025211239233613014,0.9266666769981384
0.006869171280413866,0.9800000190734863,0.025078831240534782,0.9262222051620483
0.006822323426604271,0.9800000190734863,0.024941712617874146,0.9275555610656738
0.006856855005025864,0.9800000190734863,0.02506917715072632,0.9266666769981384
0.0068651288747787476,0.9800000190734863,0.02500186301767826,0.9279999732971191
0.006851983722299337,0.9800000190734863,0.024943169206380844,0.929111123085022
0.006818246096372604,0.9800000190734863,0.024892425164580345,0.9284444451332092
0.006867619697004557,0.9800000190734863,0.025044677779078484,0.9273333549499512
0.006833367981016636,0.9800000190734863,0.024981360882520676,0.9275555610656738
0.006844285875558853,0.9800000190734863,0.025040632113814354,0.9271110892295837
0.006808732636272907,0.9800000190734863,0.02509043738245964,0.9273333549499512
0.006774390581995249,0.9800000190734863,0.02498382143676281,0.9275555610656738
0.006802053190767765,0.9800000190734863,0.02502281777560711,0.9277777671813965
0.006824222393333912,0.9800000190734863,0.025180693715810776,0.9268888831138611
0.006796288304030895,0.9800000190734863,0.02509254403412342,0.9273333549499512
0.006800379138439894,0.9819999933242798,0.025098636746406555,0.9273333549499512
0.006762152072042227,0.9819999933242798,0.025137796998023987,0.9268888831138611
0.006786598823964596,0.9800000190734863,0.02506723813712597,0.9275555610656738
0.006849141791462898,0.9800000190734863,0.02504400908946991,0.9279999732971191
0.006798251532018185,0.9800000190734863,0.024929169565439224,0.9284444451332092
0.0067748455330729485,0.9800000190734863,0.024914460256695747,0.9277777671813965
0.006753689143806696,0.9800000190734863,0.024981334805488586,0.9282222390174866
0.006760762073099613,0.9800000190734863,0.025116071105003357,0.9273333549499512
0.006776725873351097,0.9800000190734863,0.02497640810906887,0.9277777671813965
0.006781315430998802,0.9800000190734863,0.02506159245967865,0.9275555610656738
0.006788521073758602,0.9819999933242798,0.025132764130830765,0.9266666769981384
0.0067473240196704865,0.9800000190734863,0.02506084367632866,0.9271110892295837
0.006786384154111147,0.9800000190734863,0.025045638903975487,0.9279999732971191
0.006779022980481386,0.9800000190734863,0.02518351748585701,0.9262222051620483
0.006738738156855106,0.9800000190734863,0.02502725087106228,0.9273333549499512
0.006762661971151829,0.9800000190734863,0.025226324796676636,0.9266666769981384
0.006748396437615156,0.9819999933242798,0.02515769936144352,0.9266666769981384
0.006749029736965895,0.9800000190734863,0.025081584230065346,0.9277777671813965
0.006781797856092453,0.9819999933242798,0.025142578408122063,0.9275555610656738
0.006742095109075308,0.9800000190734863,0.02530394308269024,0.9262222051620483
0.006728451699018478,0.9800000190734863,0.025083038955926895,0.9271110892295837
0.0067035481333732605,0.9819999933242798,0.02510986290872097,0.9271110892295837
0.006751041393727064,0.9819999933242798,0.02514508180320263,0.9268888831138611
0.006791824474930763,0.9800000190734863,0.025293603539466858,0.9266666769981384
0.006756769958883524,0.9819999933242798,0.025098003447055817,0.9271110892295837
0.006698662880808115,0.9800000190734863,0.025125952437520027,0.9273333549499512
0.006756559479981661,0.9800000190734863,0.025164635851979256,0.9262222051620483
0.006690421141684055,0.9819999933242798,0.02521398290991783,0.9266666769981384
0.006678254809230566,0.9800000190734863,0.025151601061224937,0.9268888831138611
0.006718574557453394,0.9819999933242798,0.025314707309007645,0.9262222051620483
0.0068717519752681255,0.9800000190734863,0.025001639500260353,0.9277777671813965
0.006689229980111122,0.9800000190734863,0.024871867150068283,0.9293333292007446
0.006716984324157238,0.9800000190734863,0.02507447451353073,0.9275555610656738
0.006688934285193682,0.9819999933242798,0.025040563195943832,0.9277777671813965
0.00669805658981204,0.9819999933242798,0.025285417214035988,0.9268888831138611
0.006676521617919207,0.9800000190734863,0.025033462792634964,0.9277777671813965
0.0067152357660233974,0.9819999933242798,0.025104541331529617,0.9275555610656738
0.00667812954634428,0.9819999933242798,0.025167465209960938,0.9273333549499512
0.0067070964723825455,0.9819999933242798,0.025168638676404953,0.9273333549499512
0.006701180711388588,0.9800000190734863,0.025205165147781372,0.9275555610656738
0.006668959278613329,0.9800000190734863,0.0249226912856102,0.9282222390174866
0.006913530640304089,0.9819999933242798,0.025265280157327652,0.9271110892295837
0.006667801644653082,0.9819999933242798,0.02548818849027157,0.9253333210945129
0.006681883241981268,0.9819999933242798,0.025312406942248344,0.9259999990463257
0.0067178732715547085,0.9819999933242798,0.025312401354312897,0.9264444708824158
0.006661408115178347,0.9819999933242798,0.025271521881222725,0.9268888831138611
0.006662077270448208,0.9819999933242798,0.02511163055896759,0.9275555610656738
0.006740574724972248,0.9800000190734863,0.02522137761116028,0.9268888831138611
0.006682270206511021,0.9819999933242798,0.02513301931321621,0.9275555610656738
0.006633193232119083,0.9819999933242798,0.025293292477726936,0.9259999990463257
0.006701065227389336,0.9819999933242798,0.025128506124019623,0.9275555610656738
0.006682346574962139,0.9800000190734863,0.025198962539434433,0.9277777671813965
0.006626959890127182,0.9819999933242798,0.02504752017557621,0.9282222390174866
0.006648409180343151,0.9800000190734863,0.02528732270002365,0.9266666769981384
0.006628261413425207,0.9819999933242798,0.02516939491033554,0.9268888831138611
0.006635620724409819,0.9819999933242798,0.025330455973744392,0.925777792930603
0.006626930087804794,0.9819999933242798,0.025234447792172432,0.9266666769981384
0.006653700023889542,0.9819999933242798,0.025208361446857452,0.9268888831138611
0.006599670276045799,0.9819999933242798,0.025211166590452194,0.9268888831138611
0.0066575948148965836,0.9800000190734863,0.02520115114748478,0.9268888831138611
0.006605443079024553,0.9819999933242798,0.025269588455557823,0.9264444708824158
0.00662219850346446,0.9800000190734863,0.0251320693641901,0.9271110892295837
0.006610304582864046,0.9819999933242798,0.025293556973338127,0.9264444708824158
0.006617976818233728,0.9800000190734863,0.02516944892704487,0.9264444708824158
0.006617643404752016,0.9819999933242798,0.025211872532963753,0.9264444708824158
0.006619974970817566,0.9819999933242798,0.025281084701418877,0.9266666769981384
0.006653374060988426,0.9819999933242798,0.025277458131313324,0.9259999990463257
0.006633866112679243,0.9800000190734863,0.025244953110814095,0.9268888831138611
0.0066002788953483105,0.9800000190734863,0.025237027555704117,0.9268888831138611
0.006594559643417597,0.9819999933242798,0.02505381591618061,0.9275555610656738
0.006620465777814388,0.9819999933242798,0.025574948638677597,0.9255555272102356
0.006606827490031719,0.9819999933242798,0.02527383342385292,0.9259999990463257
0.006573608610779047,0.9819999933242798,0.025265725329518318,0.9264444708824158
0.006587820127606392,0.9819999933242798,0.02534092776477337,0.9259999990463257
0.006561839021742344,0.9819999933242798,0.025295797735452652,0.9268888831138611
0.0065384842455387115,0.9819999933242798,0.025203989818692207,0.9268888831138611
0.006550658959895372,0.9819999933242798,0.025218278169631958,0.9266666769981384
0.006562114227563143,0.9819999933242798,0.025239134207367897,0.9271110892295837
0.006565614603459835,0.9819999933242798,0.025131801143288612,0.9277777671813965
0.006522276438772678,0.9819999933242798,0.025351857766509056,0.9264444708824158
0.006535782478749752,0.9819999933242798,0.025277312844991684,0.9266666769981384
0.006566304247826338,0.9819999933242798,0.02520981803536415,0.9273333549499512
0.006619222462177277,0.9800000190734863,0.025206556543707848,0.9268888831138611
0.006551888305693865,0.9819999933242798,0.02516786940395832,0.9264444708824158
0.006611693650484085,0.9819999933242798,0.025350041687488556,0.9262222051620483
0.006602757144719362,0.9819999933242798,0.02557065524160862,0.925777792930603
0.0065241544507443905,0.9819999933242798,0.02533719316124916,0.9266666769981384
0.0065416209399700165,0.9819999933242798,0.02532503940165043,0.9266666769981384
0.006531909108161926,0.9819999933242798,0.025249801576137543,0.9268888831138611
0.006535061169415712,0.9819999933242798,0.02517884038388729,0.9271110892295837
0.006520512513816357,0.9819999933242798,0.025165067985653877,0.9273333549499512
0.006552606355398893,0.9819999933242798,0.02538980357348919,0.9266666769981384
0.006558539345860481,0.9819999933242798,0.025218138471245766,0.9282222390174866
0.006519318092614412,0.9819999933242798,0.02505173347890377,0.9282222390174866
0.006600258406251669,0.9800000190734863,0.025140628218650818,0.9273333549499512
0.006518303416669369,0.9819999933242798,0.02522481046617031,0.9273333549499512
0.006492838729172945,0.9819999933242798,0.025241145864129066,0.9271110892295837
0.006497751455754042,0.9819999933242798,0.025237999856472015,0.9273333549499512
0.006511298008263111,0.9819999933242798,0.02525085210800171,0.9271110892295837
0.0065001025795936584,0.9819999933242798,0.02528586983680725,0.9264444708824158
0.006503696087747812,0.9819999933242798,0.025272464379668236,0.9266666769981384
0.0065061189234256744,0.9819999933242798,0.02527742087841034,0.9273333549499512
0.006519675720483065,0.9819999933242798,0.02521037682890892,0.9271110892295837
0.006529522128403187,0.9819999933242798,0.025150518864393234,0.9275555610656738
0.006500779185444117,0.9819999933242798,0.025271661579608917,0.9271110892295837
0.006485796999186277,0.9819999933242798,0.0252529326826334,0.9275555610656738
0.006462174002081156,0.9819999933242798,0.025242790579795837,0.9266666769981384
0.006504003424197435,0.9819999933242798,0.025284677743911743,0.9268888831138611
0.00649657566100359,0.9819999933242798,0.025333797559142113,0.9277777671813965
0.006530829705297947,0.9800000190734863,0.025243882089853287,0.9279999732971191
0.006491372361779213,0.9819999933242798,0.025147387757897377,0.9282222390174866
0.006513879168778658,0.9819999933242798,0.02513602189719677,0.9277777671813965
0.00645834906026721,0.9819999933242798,0.025376981124281883,0.9275555610656738
0.006490837316960096,0.9819999933242798,0.025154391303658485,0.9275555610656738
0.0064963698387146,0.9819999933242798,0.02530563622713089,0.9273333549499512
0.006456296890974045,0.9819999933242798,0.025289110839366913,0.9273333549499512
0.00643085315823555,0.9819999933242798,0.02519078366458416,0.9277777671813965
0.006459611933678389,0.9819999933242798,0.025339944288134575,0.9271110892295837
0.0064769322052598,0.9819999933242798,0.02529335953295231,0.9271110892295837
0.006452687084674835,0.9819999933242798,0.02523520030081272,0.9271110892295837
0.00643364991992712,0.9819999933242798,0.0252840518951416,0.9273333549499512
0.006433690432459116,0.9819999933242798,0.025309041142463684,0.9271110892295837
0.006485357880592346,0.9819999933242798,0.02531144954264164,0.9271110892295837
0.00648089312016964,0.9819999933242798,0.025375641882419586,0.9268888831138611
0.006447690073400736,0.9819999933242798,0.025372890755534172,0.9275555610656738
0.006433351896703243,0.9819999933242798,0.025267016142606735,0.9277777671813965
0.006422765087336302,0.9819999933242798,0.025261670351028442,0.9277777671813965
0.0064399526454508305,0.9819999933242798,0.025277022272348404,0.9271110892295837
0.006452050060033798,0.9819999933242798,0.025326404720544815,0.9279999732971191
0.006413812283426523,0.9819999933242798,0.02522367052733898,0.9273333549499512
0.006436875555664301,0.9819999933242798,0.025260169059038162,0.9275555610656738
0.006446055136620998,0.9819999933242798,0.025386132299900055,0.9275555610656738
0.006453484762459993,0.9819999933242798,0.025377120822668076,0.9275555610656738
0.006441829726099968,0.9819999933242798,0.025248829275369644,0.9273333549499512
0.006452633533626795,0.9819999933242798,0.025358064100146294,0.9279999732971191
0.006428619381040335,0.9819999933242798,0.02538454532623291,0.9277777671813965
0.006408927030861378,0.9819999933242798,0.025386305525898933,0.9275555610656738
0.006410304456949234,0.9819999933242798,0.025149930268526077,0.9282222390174866
0.006471485365182161,0.9819999933242798,0.025359001010656357,0.9277777671813965
0.006399062462151051,0.9819999933242798,0.025261802598834038,0.9277777671813965
0.006383914966136217,0.9819999933242798,0.025320956483483315,0.9275555610656738
0.006383988074958324,0.9819999933242798,0.025187736377120018,0.9282222390174866
0.006385782267898321,0.9819999933242798,0.025265678763389587,0.9275555610656738
0.006374223157763481,0.9819999933242798,0.025426510721445084,0.9275555610656738
0.006451801396906376,0.9819999933242798,0.025208676233887672,0.9279999732971191
0.006544142030179501,0.9819999933242798,0.02553759515285492,0.9264444708824158
0.006407683249562979,0.9819999933242798,0.025311538949608803,0.9277777671813965
0.006378196179866791,0.9819999933242798,0.02539590373635292,0.9273333549499512
0.006422119215130806,0.9819999933242798,0.025383010506629944,0.9277777671813965
0.0063959937542676926,0.9819999933242798,0.025067724287509918,0.9288889169692993
0.006402971222996712,0.9819999933242798,0.02525005303323269,0.9282222390174866
0.006402410101145506,0.9819999933242798,0.025143923237919807,0.9286666512489319
0.006391221657395363,0.9819999933242798,0.025537950918078423,0.9268888831138611
0.006436578929424286,0.9819999933242798,0.025394974276423454,0.9282222390174866
0.006361821200698614,0.9819999933242798,0.025348378345370293,0.9277777671813965
0.006379665806889534,0.9819999933242798,0.025229960680007935,0.9279999732971191
0.006374487653374672,0.9819999933242798,0.025411276146769524,0.9279999732971191
0.006325320806354284,0.9819999933242798,0.02527466230094433,0.9279999732971191
0.006332159508019686,0.9819999933242798,0.025293871760368347,0.9275555610656738
0.006329503376036882,0.9819999933242798,0.02529505081474781,0.9279999732971191
0.0063522690907120705,0.9819999933242798,0.025271717458963394,0.9279999732971191
0.006385285872966051,0.9819999933242798,0.025302505120635033,0.9273333549499512
0.006305372342467308,0.9819999933242798,0.025424618273973465,0.9271110892295837
0.006360297091305256,0.9819999933242798,0.025386733934283257,0.9273333549499512
0.00633124727755785,0.9819999933242798,0.025372177362442017,0.9279999732971191
0.006342614535242319,0.9819999933242798,0.025317130610346794,0.9277777671813965
0.0063350265845656395,0.9819999933242798,0.02507622353732586,0.9288889169692993
0.006326646544039249,0.9819999933242798,0.025204923003911972,0.9277777671813965
0.006300457753241062,0.9819999933242798,0.02521532028913498,0.9277777671813965
0.0063309213146567345,0.9819999933242798,0.025344282388687134,0.9279999732971191
0.0063328370451927185,0.9819999933242798,0.025230329483747482,0.9279999732971191
0.006317919120192528,0.9819999933242798,0.02531340718269348,0.9273333549499512
0.006375101860612631,0.9819999933242798,0.025400549173355103,0.9277777671813965
0.006341910921037197,0.9819999933242798,0.025363745167851448,0.9279999732971191
0.00632776552811265,0.9819999933242798,0.02529866062104702,0.9279999732971191
0.006291224621236324,0.9819999933242798,0.02536506950855255,0.9277777671813965
0.006315840408205986,0.9819999933242798,0.02548990584909916,0.9275555610656738
0.0062997471541166306,0.9819999933242798,0.025424547493457794,0.9279999732971191
0.006310144905000925,0.9819999933242798,0.02539590373635292,0.9282222390174866
0.006271556951105595,0.9819999933242798,0.02531639114022255,0.9284444451332092
0.006309594959020615,0.9819999933242798,0.025345873087644577,0.9286666512489319
0.006274733692407608,0.9819999933242798,0.025586208328604698,0.9277777671813965
0.006289619021117687,0.9819999933242798,0.02519662119448185,0.9288889169692993
