loss,accuracy,val_loss,val_accuracy,lr
1.6845616102218628,0.28200000524520874,1.5723278522491455,0.35288888216018677,0.0010000000474974513
1.6517013311386108,0.2939999997615814,1.522492527961731,0.3531111180782318,0.0010000000474974513
1.60207998752594,0.328000009059906,1.4759644269943237,0.3548888862133026,0.0010000000474974513
1.5634516477584839,0.32199999690055847,1.4316074848175049,0.3817777633666992,0.0010000000474974513
1.5094339847564697,0.36800000071525574,1.3899052143096924,0.44200000166893005,0.0010000000474974513
1.4657505750656128,0.414000004529953,1.349575400352478,0.5477777719497681,0.0010000000474974513
1.4169505834579468,0.4399999976158142,1.3110262155532837,0.6502222418785095,0.0010000000474974513
1.4154609441757202,0.4399999976158142,1.273106575012207,0.72688889503479,0.0010000000474974513
1.375189185142517,0.49399998784065247,1.236756682395935,0.7793333530426025,0.0010000000474974513
1.320317268371582,0.5320000052452087,1.2019630670547485,0.8211110830307007,0.0010000000474974513
1.2738449573516846,0.5740000009536743,1.1684870719909668,0.8493333458900452,0.0010000000474974513
1.2437520027160645,0.6119999885559082,1.1364940404891968,0.8724444508552551,0.0010000000474974513
1.2414236068725586,0.6060000061988831,1.1048130989074707,0.886222243309021,0.0010000000474974513
1.1750667095184326,0.6759999990463257,1.074105978012085,0.894444465637207,0.0010000000474974513
1.1554961204528809,0.6819999814033508,1.0450559854507446,0.8993333578109741,0.0010000000474974513
1.1205923557281494,0.7139999866485596,1.0169843435287476,0.9020000100135803,0.0010000000474974513
1.0939685106277466,0.7580000162124634,0.9895787835121155,0.9035555720329285,0.0010000000474974513
1.10358726978302,0.7139999866485596,0.9636447429656982,0.9071111083030701,0.0010000000474974513
1.0404926538467407,0.7839999794960022,0.9386255145072937,0.9066666960716248,0.0010000000474974513
1.0132445096969604,0.8140000104904175,0.9141235947608948,0.9097777605056763,0.0010000000474974513
0.9840220212936401,0.8080000281333923,0.8904551863670349,0.910444438457489,0.0010000000474974513
0.9782858490943909,0.8240000009536743,0.8670466542243958,0.9100000262260437,0.0010000000474974513
0.9402379989624023,0.8399999737739563,0.8451504707336426,0.9102222323417664,0.0010000000474974513
0.915264904499054,0.8500000238418579,0.8239699602127075,0.9097777605056763,0.0010000000474974513
0.9016048908233643,0.8539999723434448,0.8033291697502136,0.9095555543899536,0.0010000000474974513
0.8948246836662292,0.8519999980926514,0.7833605408668518,0.909333348274231,0.0010000000474974513
0.8504503965377808,0.8700000047683716,0.7645630836486816,0.909333348274231,0.0010000000474974513
0.8313563466072083,0.8799999952316284,0.7466738820075989,0.9102222323417664,0.0010000000474974513
0.824172854423523,0.8799999952316284,0.7290984988212585,0.9106666445732117,0.0010000000474974513
0.8074697852134705,0.8539999723434448,0.7123793959617615,0.9108889102935791,0.0010000000474974513
0.7764203548431396,0.8899999856948853,0.6957082152366638,0.9106666445732117,0.0010000000474974513
0.7651112079620361,0.9039999842643738,0.680044949054718,0.9106666445732117,0.0010000000474974513
0.7496931552886963,0.8980000019073486,0.6654143333435059,0.9102222323417664,0.0010000000474974513
0.7393139600753784,0.8980000019073486,0.6507622599601746,0.910444438457489,0.0010000000474974513
0.7063366174697876,0.8999999761581421,0.6371827721595764,0.9106666445732117,0.0010000000474974513
0.7033007740974426,0.8939999938011169,0.6242451667785645,0.9120000004768372,0.0010000000474974513
0.6976137757301331,0.8999999761581421,0.6120323538780212,0.9120000004768372,0.0010000000474974513
0.675351083278656,0.8920000195503235,0.5998612642288208,0.9120000004768372,0.0010000000474974513
0.669907808303833,0.8840000033378601,0.5884352922439575,0.9124444723129272,0.0010000000474974513
0.6510252356529236,0.8939999938011169,0.5773693919181824,0.9122222065925598,0.0010000000474974513
0.6415876746177673,0.8960000276565552,0.5668056011199951,0.9124444723129272,0.0010000000474974513
0.6286194920539856,0.9020000100135803,0.5568668246269226,0.9124444723129272,0.0010000000474974513
0.6344590783119202,0.8980000019073486,0.5470930933952332,0.9124444723129272,0.0010000000474974513
0.6185328364372253,0.9039999842643738,0.5376237034797668,0.9126666784286499,0.0010000000474974513
0.5875962972640991,0.9039999842643738,0.5289024710655212,0.9126666784286499,0.0010000000474974513
0.5986016392707825,0.9039999842643738,0.5206775665283203,0.9126666784286499,0.0010000000474974513
0.5865145325660706,0.8980000019073486,0.5125287771224976,0.9126666784286499,0.0010000000474974513
0.565546452999115,0.9020000100135803,0.5048621296882629,0.9126666784286499,0.0010000000474974513
0.5608046650886536,0.8920000195503235,0.4976605772972107,0.9126666784286499,0.0010000000474974513
0.5414815545082092,0.9120000004768372,0.49060872197151184,0.9126666784286499,0.0010000000474974513
0.5253167748451233,0.9100000262260437,0.4838898777961731,0.9124444723129272,0.0010000000474974513
0.5417888164520264,0.9100000262260437,0.4775070548057556,0.9124444723129272,0.0010000000474974513
0.5466549396514893,0.8920000195503235,0.4713773727416992,0.9124444723129272,0.0010000000474974513
0.5255828499794006,0.9020000100135803,0.46555137634277344,0.9124444723129272,0.0010000000474974513
0.5030927658081055,0.9139999747276306,0.45984897017478943,0.9124444723129272,0.0010000000474974513
0.5128812789916992,0.906000018119812,0.45432594418525696,0.9124444723129272,0.0010000000474974513
0.5069817304611206,0.9120000004768372,0.44928178191185,0.9124444723129272,0.0010000000474974513
0.4979116916656494,0.9120000004768372,0.4443959593772888,0.9124444723129272,0.0010000000474974513
0.4891926348209381,0.9100000262260437,0.4398370683193207,0.9128888845443726,0.0010000000474974513
0.49702614545822144,0.906000018119812,0.43532806634902954,0.9128888845443726,0.0010000000474974513
0.4861072897911072,0.9240000247955322,0.4310145676136017,0.9131110906600952,0.0010000000474974513
0.48455628752708435,0.9139999747276306,0.42685890197753906,0.9133333563804626,0.0010000000474974513
0.46878311038017273,0.9179999828338623,0.422805517911911,0.9133333563804626,0.0010000000474974513
0.46106478571891785,0.9160000085830688,0.4190698266029358,0.9133333563804626,0.0010000000474974513
0.4544394910335541,0.9120000004768372,0.4154278337955475,0.9133333563804626,0.0010000000474974513
0.44691798090934753,0.9139999747276306,0.41201725602149963,0.9133333563804626,0.0010000000474974513
0.4533576965332031,0.9100000262260437,0.40856218338012695,0.9135555624961853,0.0010000000474974513
0.45764806866645813,0.9100000262260437,0.4054482877254486,0.9135555624961853,0.0010000000474974513
0.437486857175827,0.9160000085830688,0.4022861421108246,0.9135555624961853,0.0010000000474974513
0.44647905230522156,0.9139999747276306,0.39937824010849,0.9135555624961853,0.0010000000474974513
0.42888492345809937,0.9139999747276306,0.39667829871177673,0.9135555624961853,0.0010000000474974513
0.4306902289390564,0.9179999828338623,0.39412423968315125,0.9135555624961853,0.0010000000474974513
0.42985087633132935,0.9240000247955322,0.3916488289833069,0.9135555624961853,0.0010000000474974513
0.43974217772483826,0.9160000085830688,0.38929733633995056,0.913777768611908,0.0010000000474974513
0.4174840748310089,0.9179999828338623,0.3870445191860199,0.9139999747276306,0.0010000000474974513
0.43160712718963623,0.9120000004768372,0.3847937285900116,0.9139999747276306,0.0010000000474974513
0.4255586564540863,0.9079999923706055,0.3827187120914459,0.9139999747276306,0.0010000000474974513
0.41804152727127075,0.9160000085830688,0.38058048486709595,0.9139999747276306,0.0010000000474974513
0.4150952100753784,0.9179999828338623,0.3785606026649475,0.914222240447998,0.0010000000474974513
0.4047912061214447,0.9179999828338623,0.3767768442630768,0.914222240447998,0.0010000000474974513
0.4081382751464844,0.9200000166893005,0.37498584389686584,0.914222240447998,0.0010000000474974513
0.3940278887748718,0.9200000166893005,0.3732661008834839,0.914222240447998,0.0010000000474974513
0.39972710609436035,0.9240000247955322,0.37166017293930054,0.914222240447998,0.0010000000474974513
0.41813987493515015,0.921999990940094,0.3700019419193268,0.914222240447998,0.0010000000474974513
0.40725961327552795,0.9179999828338623,0.3685162365436554,0.914222240447998,0.0010000000474974513
0.4019250273704529,0.921999990940094,0.3670070767402649,0.9144444465637207,0.0010000000474974513
0.39884501695632935,0.9240000247955322,0.3655844032764435,0.9144444465637207,0.0010000000474974513
0.38528695702552795,0.9200000166893005,0.36424827575683594,0.9144444465637207,0.0010000000474974513
0.38078004121780396,0.9259999990463257,0.36308732628822327,0.9146666526794434,0.0010000000474974513
0.3978058099746704,0.9179999828338623,0.3618440628051758,0.9146666526794434,0.0010000000474974513
0.37678733468055725,0.9139999747276306,0.36071622371673584,0.9146666526794434,0.0010000000474974513
0.37017586827278137,0.921999990940094,0.3596394956111908,0.9146666526794434,0.0010000000474974513
0.38026028871536255,0.9139999747276306,0.3586004972457886,0.9146666526794434,0.0010000000474974513
0.37697747349739075,0.9240000247955322,0.3575612008571625,0.9146666526794434,0.0010000000474974513
0.38950031995773315,0.9200000166893005,0.35660019516944885,0.9146666526794434,0.0010000000474974513
0.3785392642021179,0.9200000166893005,0.3555883467197418,0.9146666526794434,0.0010000000474974513
0.38659968972206116,0.921999990940094,0.3546256124973297,0.9146666526794434,0.0010000000474974513
0.3744388818740845,0.921999990940094,0.353691041469574,0.9146666526794434,0.0010000000474974513
0.38135993480682373,0.9160000085830688,0.35276177525520325,0.9146666526794434,0.0010000000474974513
0.37221184372901917,0.9200000166893005,0.3518387973308563,0.9146666526794434,0.0010000000474974513
0.36074113845825195,0.9179999828338623,0.3508908450603485,0.9144444465637207,0.0010000000474974513
0.35378602147102356,0.921999990940094,0.35004109144210815,0.9144444465637207,0.0010000000474974513
0.36985641717910767,0.9240000247955322,0.34919577836990356,0.9144444465637207,0.0010000000474974513
0.3670022189617157,0.9259999990463257,0.34833645820617676,0.9144444465637207,0.0010000000474974513
0.3733181655406952,0.9240000247955322,0.34760594367980957,0.9144444465637207,0.0010000000474974513
0.36867260932922363,0.9259999990463257,0.346735417842865,0.9144444465637207,0.0010000000474974513
0.368974894285202,0.9139999747276306,0.3460693657398224,0.9144444465637207,0.0010000000474974513
0.3743511140346527,0.9179999828338623,0.34524086117744446,0.9146666526794434,0.0010000000474974513
0.36386948823928833,0.9259999990463257,0.34455665946006775,0.9148889183998108,0.0010000000474974513
0.3528803884983063,0.9259999990463257,0.3436592221260071,0.9148889183998108,0.0010000000474974513
0.36060044169425964,0.9160000085830688,0.34291255474090576,0.9148889183998108,0.0010000000474974513
0.3501792252063751,0.9160000085830688,0.34225916862487793,0.9148889183998108,0.0010000000474974513
0.35393011569976807,0.9240000247955322,0.3415908217430115,0.9151111245155334,0.0010000000474974513
0.3747774660587311,0.9279999732971191,0.3410295248031616,0.9153333306312561,0.0010000000474974513
0.3441554605960846,0.9279999732971191,0.3404197096824646,0.9153333306312561,0.0010000000474974513
0.34988120198249817,0.9240000247955322,0.3397493064403534,0.9153333306312561,0.0010000000474974513
0.35632067918777466,0.921999990940094,0.33916720747947693,0.9153333306312561,0.0010000000474974513
0.3606612980365753,0.9200000166893005,0.3386230766773224,0.9153333306312561,0.0010000000474974513
0.3553633987903595,0.9259999990463257,0.3380737602710724,0.9153333306312561,0.0010000000474974513
0.3441792130470276,0.921999990940094,0.337612509727478,0.9153333306312561,0.0010000000474974513
0.3227536678314209,0.9279999732971191,0.3370797634124756,0.9153333306312561,0.0010000000474974513
0.34912294149398804,0.9179999828338623,0.33651241660118103,0.9153333306312561,0.0010000000474974513
0.3468617796897888,0.9279999732971191,0.3358500301837921,0.9153333306312561,0.0010000000474974513
0.3368278443813324,0.921999990940094,0.3352400064468384,0.9153333306312561,0.0010000000474974513
0.33676695823669434,0.9240000247955322,0.3346934914588928,0.9153333306312561,0.0010000000474974513
0.3559405505657196,0.921999990940094,0.33407536149024963,0.9153333306312561,0.0010000000474974513
0.3386722505092621,0.9279999732971191,0.3335394561290741,0.9153333306312561,0.0010000000474974513
0.34074094891548157,0.9179999828338623,0.3330058753490448,0.9153333306312561,0.0010000000474974513
0.3340332806110382,0.9240000247955322,0.3324986398220062,0.9153333306312561,0.0010000000474974513
0.3467499315738678,0.921999990940094,0.3318708539009094,0.9153333306312561,0.0010000000474974513
0.33132123947143555,0.9259999990463257,0.3314926028251648,0.9153333306312561,0.0010000000474974513
0.3244600296020508,0.921999990940094,0.3310318887233734,0.9153333306312561,0.0010000000474974513
0.34380993247032166,0.9300000071525574,0.33054104447364807,0.9153333306312561,0.0010000000474974513
0.33252689242362976,0.921999990940094,0.3300360143184662,0.9153333306312561,0.0010000000474974513
0.3311280906200409,0.9279999732971191,0.3295383155345917,0.9153333306312561,0.0010000000474974513
0.33878040313720703,0.9240000247955322,0.3290959596633911,0.9155555367469788,0.0010000000474974513
0.32495829463005066,0.9279999732971191,0.3286988139152527,0.9155555367469788,0.0010000000474974513
0.33471807837486267,0.9259999990463257,0.3282117545604706,0.9157778024673462,0.0010000000474974513
0.33771875500679016,0.9279999732971191,0.32773342728614807,0.9157778024673462,0.0010000000474974513
0.32483214139938354,0.9259999990463257,0.3272794187068939,0.9157778024673462,0.0010000000474974513
0.34229037165641785,0.9259999990463257,0.3268241882324219,0.9157778024673462,0.0010000000474974513
0.3312479853630066,0.9240000247955322,0.326367050409317,0.9157778024673462,0.0010000000474974513
0.33343589305877686,0.9259999990463257,0.3260089159011841,0.9157778024673462,0.0010000000474974513
0.32628464698791504,0.921999990940094,0.3256039619445801,0.9157778024673462,0.0010000000474974513
0.31462982296943665,0.921999990940094,0.32516831159591675,0.9157778024673462,0.0010000000474974513
0.3333706259727478,0.9259999990463257,0.3247562050819397,0.9157778024673462,0.0010000000474974513
0.31548649072647095,0.9279999732971191,0.3243353068828583,0.9157778024673462,0.0010000000474974513
0.331773042678833,0.9279999732971191,0.32387423515319824,0.9160000085830688,0.0010000000474974513
0.34066787362098694,0.9259999990463257,0.32345500588417053,0.9160000085830688,0.0010000000474974513
0.3438565135002136,0.9279999732971191,0.3231450319290161,0.9160000085830688,0.0010000000474974513
0.3226260244846344,0.9279999732971191,0.32279372215270996,0.9160000085830688,0.0010000000474974513
0.3175323009490967,0.9259999990463257,0.322468638420105,0.9160000085830688,0.0010000000474974513
0.3262779414653778,0.9179999828338623,0.3220873773097992,0.9160000085830688,0.0010000000474974513
0.33422476053237915,0.9200000166893005,0.32177412509918213,0.9160000085830688,0.0010000000474974513
0.31152814626693726,0.9300000071525574,0.32144099473953247,0.9160000085830688,0.0010000000474974513
0.3083280026912689,0.9279999732971191,0.32108697295188904,0.9160000085830688,0.0010000000474974513
0.32069629430770874,0.9240000247955322,0.3207378685474396,0.9160000085830688,0.0010000000474974513
0.3246370851993561,0.9259999990463257,0.3203681409358978,0.9160000085830688,0.0010000000474974513
0.335966557264328,0.9179999828338623,0.3199280798435211,0.9160000085830688,0.0010000000474974513
0.3287256360054016,0.9259999990463257,0.3195515275001526,0.9160000085830688,0.0010000000474974513
0.31478551030158997,0.9240000247955322,0.3192329704761505,0.9160000085830688,0.0010000000474974513
0.31738021969795227,0.9319999814033508,0.31888678669929504,0.9160000085830688,0.0010000000474974513
0.3188541531562805,0.9259999990463257,0.3185138702392578,0.9160000085830688,0.0010000000474974513
0.3234997093677521,0.9279999732971191,0.31811627745628357,0.9160000085830688,0.0010000000474974513
0.3235466182231903,0.9200000166893005,0.31776389479637146,0.9160000085830688,0.0010000000474974513
0.3102835416793823,0.9240000247955322,0.31742507219314575,0.9162222146987915,0.0010000000474974513
0.3075553774833679,0.9259999990463257,0.3170808255672455,0.9162222146987915,0.0010000000474974513
0.3294088840484619,0.9179999828338623,0.3167526423931122,0.9162222146987915,0.0010000000474974513
0.30152738094329834,0.9240000247955322,0.31640440225601196,0.9162222146987915,0.0010000000474974513
0.31360527873039246,0.9240000247955322,0.3160741329193115,0.9162222146987915,0.0010000000474974513
0.30885955691337585,0.9300000071525574,0.31582000851631165,0.9164444208145142,0.0010000000474974513
0.30489465594291687,0.9300000071525574,0.31547003984451294,0.9164444208145142,0.0010000000474974513
0.317873477935791,0.9300000071525574,0.31510668992996216,0.9164444208145142,0.0010000000474974513
0.32063814997673035,0.9240000247955322,0.31482037901878357,0.9164444208145142,0.0010000000474974513
0.3040440082550049,0.9300000071525574,0.31447160243988037,0.9166666865348816,0.0010000000474974513
0.3118817210197449,0.9240000247955322,0.3140755891799927,0.9166666865348816,0.0010000000474974513
0.3112293481826782,0.9279999732971191,0.3137070834636688,0.9168888926506042,0.0010000000474974513
0.3073126971721649,0.9300000071525574,0.31335049867630005,0.9168888926506042,0.0010000000474974513
0.2934828996658325,0.9300000071525574,0.31303730607032776,0.9171110987663269,0.0010000000474974513
0.3044859766960144,0.9259999990463257,0.3127298057079315,0.9171110987663269,0.0010000000474974513
0.3061908483505249,0.9240000247955322,0.31239259243011475,0.9171110987663269,0.0010000000474974513
0.29581978917121887,0.9279999732971191,0.3120584785938263,0.9171110987663269,0.0010000000474974513
0.3151814639568329,0.9300000071525574,0.3118128776550293,0.9171110987663269,0.0010000000474974513
0.31508734822273254,0.9279999732971191,0.3114412724971771,0.9171110987663269,0.0010000000474974513
0.30357930064201355,0.9340000152587891,0.31109511852264404,0.9171110987663269,0.0010000000474974513
0.3081723153591156,0.9300000071525574,0.3108053207397461,0.9171110987663269,0.0010000000474974513
0.3053830564022064,0.9300000071525574,0.3105281889438629,0.9171110987663269,0.0010000000474974513
0.30045202374458313,0.9340000152587891,0.31022632122039795,0.9171110987663269,0.0010000000474974513
0.28644096851348877,0.9300000071525574,0.3099621534347534,0.9171110987663269,0.0010000000474974513
0.30576297640800476,0.9279999732971191,0.30976414680480957,0.9171110987663269,0.0010000000474974513
0.3087065815925598,0.921999990940094,0.3094790279865265,0.9171110987663269,0.0010000000474974513
0.30792203545570374,0.921999990940094,0.3091837763786316,0.9171110987663269,0.0010000000474974513
0.30178242921829224,0.9319999814033508,0.3089448809623718,0.9171110987663269,0.0010000000474974513
0.29375743865966797,0.9240000247955322,0.3087189197540283,0.9171110987663269,0.0010000000474974513
0.30029165744781494,0.9259999990463257,0.30848172307014465,0.9171110987663269,0.0010000000474974513
0.30310550332069397,0.9259999990463257,0.30817365646362305,0.9171110987663269,0.0010000000474974513
0.2957402765750885,0.9319999814033508,0.3078801929950714,0.9171110987663269,0.0010000000474974513
0.30802229046821594,0.9200000166893005,0.3075414299964905,0.9173333048820496,0.0010000000474974513
0.31832632422447205,0.921999990940094,0.30720457434654236,0.9173333048820496,0.0010000000474974513
0.3059525489807129,0.9259999990463257,0.30693015456199646,0.9173333048820496,0.0010000000474974513
0.30764666199684143,0.9259999990463257,0.30655789375305176,0.9173333048820496,0.0010000000474974513
0.3139554262161255,0.9240000247955322,0.3062633275985718,0.9173333048820496,0.0010000000474974513
0.28128206729888916,0.9300000071525574,0.306048721075058,0.9173333048820496,0.0010000000474974513
0.2829251289367676,0.9240000247955322,0.3057934641838074,0.9173333048820496,0.0010000000474974513
0.2840781509876251,0.9319999814033508,0.3055521249771118,0.917555570602417,0.0010000000474974513
0.3004957139492035,0.9240000247955322,0.3052999675273895,0.917555570602417,0.0010000000474974513
0.30073437094688416,0.9259999990463257,0.3050505518913269,0.917555570602417,0.0010000000474974513
0.2928163409233093,0.9300000071525574,0.30478131771087646,0.917555570602417,0.0010000000474974513
0.29544973373413086,0.9259999990463257,0.3045262098312378,0.917555570602417,0.0010000000474974513
0.30920523405075073,0.9279999732971191,0.30424821376800537,0.917555570602417,0.0010000000474974513
0.30461519956588745,0.9259999990463257,0.30403608083724976,0.917555570602417,0.0010000000474974513
0.29826590418815613,0.9279999732971191,0.3037845492362976,0.917555570602417,0.0010000000474974513
0.29349491000175476,0.9300000071525574,0.303470641374588,0.917555570602417,0.0010000000474974513
0.301434725522995,0.9300000071525574,0.3032500147819519,0.917555570602417,0.0010000000474974513
0.29260221123695374,0.9259999990463257,0.30300143361091614,0.917555570602417,0.0010000000474974513
0.29250219464302063,0.9259999990463257,0.30273130536079407,0.9177777767181396,0.0010000000474974513
0.3092323839664459,0.9259999990463257,0.30248576402664185,0.9177777767181396,0.0010000000474974513
0.3024168014526367,0.9279999732971191,0.3022187650203705,0.9177777767181396,0.0010000000474974513
0.28260543942451477,0.9259999990463257,0.3019527494907379,0.9177777767181396,0.0010000000474974513
0.2832399010658264,0.9279999732971191,0.30168280005455017,0.9177777767181396,0.0010000000474974513
0.3021990656852722,0.9319999814033508,0.30138590931892395,0.9177777767181396,0.0010000000474974513
0.2867862284183502,0.9300000071525574,0.3011993169784546,0.9179999828338623,0.0010000000474974513
0.29769861698150635,0.9259999990463257,0.30097874999046326,0.9179999828338623,0.0010000000474974513
0.2897467017173767,0.9259999990463257,0.3007989823818207,0.9179999828338623,0.0010000000474974513
0.3035888373851776,0.9259999990463257,0.3005664050579071,0.9179999828338623,0.0010000000474974513
0.2814871668815613,0.9279999732971191,0.3003496527671814,0.9179999828338623,0.0010000000474974513
0.2960965633392334,0.9300000071525574,0.3001512587070465,0.9179999828338623,0.0010000000474974513
0.29440030455589294,0.9300000071525574,0.29984235763549805,0.9179999828338623,0.0010000000474974513
0.2864888310432434,0.9259999990463257,0.2995801568031311,0.9179999828338623,0.0010000000474974513
0.2960929274559021,0.9279999732971191,0.29933246970176697,0.9182222485542297,0.0010000000474974513
0.2930241525173187,0.9319999814033508,0.29909229278564453,0.918666660785675,0.0010000000474974513
0.29436999559402466,0.9259999990463257,0.2988172173500061,0.918666660785675,0.0010000000474974513
0.28606152534484863,0.9319999814033508,0.2986092269420624,0.918666660785675,0.0010000000474974513
0.2920697331428528,0.9279999732971191,0.2983028292655945,0.918666660785675,0.0010000000474974513
0.28659000992774963,0.9300000071525574,0.2979831099510193,0.918666660785675,0.0010000000474974513
0.28125759959220886,0.9300000071525574,0.2978788912296295,0.918666660785675,0.0010000000474974513
0.2876700162887573,0.9279999732971191,0.297597736120224,0.918666660785675,0.0010000000474974513
0.28728416562080383,0.9279999732971191,0.2973157465457916,0.918666660785675,0.0010000000474974513
0.29056915640830994,0.9300000071525574,0.2971615791320801,0.918666660785675,0.0010000000474974513
0.3051215708255768,0.9300000071525574,0.2969309687614441,0.918666660785675,0.0010000000474974513
0.2845238447189331,0.9259999990463257,0.29663968086242676,0.9188888669013977,0.0010000000474974513
0.29234784841537476,0.9279999732971191,0.29635724425315857,0.9188888669013977,0.0010000000474974513
0.28737667202949524,0.9259999990463257,0.2961464822292328,0.9191111326217651,0.0010000000474974513
0.2875421345233917,0.9259999990463257,0.29588547348976135,0.9191111326217651,0.0010000000474974513
0.28487101197242737,0.9319999814033508,0.2956455945968628,0.9191111326217651,0.0010000000474974513
0.27467161417007446,0.9240000247955322,0.2954786717891693,0.9191111326217651,0.0010000000474974513
0.28336215019226074,0.9279999732971191,0.2952638864517212,0.9191111326217651,0.0010000000474974513
0.2912136912345886,0.9279999732971191,0.29502084851264954,0.9191111326217651,0.0010000000474974513
0.3004109561443329,0.9259999990463257,0.29480716586112976,0.9191111326217651,0.0010000000474974513
0.2791917622089386,0.9279999732971191,0.29455551505088806,0.9191111326217651,0.0010000000474974513
0.28870823979377747,0.9279999732971191,0.2941748797893524,0.9191111326217651,0.0010000000474974513
0.28069934248924255,0.9319999814033508,0.29397842288017273,0.9191111326217651,0.0010000000474974513
0.2866034507751465,0.9279999732971191,0.2938250005245209,0.9191111326217651,0.0010000000474974513
0.27661752700805664,0.9300000071525574,0.29360538721084595,0.9191111326217651,0.0010000000474974513
0.29654228687286377,0.9279999732971191,0.2934053838253021,0.9191111326217651,0.0010000000474974513
0.2753661274909973,0.9300000071525574,0.2931648790836334,0.9191111326217651,0.0010000000474974513
0.26253291964530945,0.9300000071525574,0.2929844260215759,0.9191111326217651,0.0010000000474974513
0.2740820348262787,0.9319999814033508,0.29282528162002563,0.9191111326217651,0.0010000000474974513
0.2909510135650635,0.9279999732971191,0.2925357520580292,0.9191111326217651,0.0010000000474974513
0.27705663442611694,0.9300000071525574,0.29230257868766785,0.9191111326217651,0.0010000000474974513
0.2856147587299347,0.9300000071525574,0.2921047508716583,0.9191111326217651,0.0010000000474974513
0.2873416841030121,0.9279999732971191,0.29195377230644226,0.9191111326217651,0.0010000000474974513
0.27970007061958313,0.9300000071525574,0.2917555868625641,0.9191111326217651,0.0010000000474974513
0.27040690183639526,0.9300000071525574,0.2915665805339813,0.9191111326217651,0.0010000000474974513
0.2815602123737335,0.9300000071525574,0.291294127702713,0.9191111326217651,0.0010000000474974513
0.29460468888282776,0.9300000071525574,0.2911258041858673,0.9191111326217651,0.0010000000474974513
0.2899072468280792,0.9279999732971191,0.29087311029434204,0.9191111326217651,0.0010000000474974513
0.2751336395740509,0.9279999732971191,0.2906922399997711,0.9191111326217651,0.0010000000474974513
0.2731482684612274,0.9319999814033508,0.2904406785964966,0.9191111326217651,0.0010000000474974513
0.27897027134895325,0.9279999732971191,0.2902722954750061,0.9191111326217651,0.0010000000474974513
0.2777854800224304,0.9279999732971191,0.29006385803222656,0.9191111326217651,0.0010000000474974513
0.27849262952804565,0.9319999814033508,0.28992176055908203,0.9191111326217651,0.0010000000474974513
0.2737017273902893,0.9300000071525574,0.28966331481933594,0.9191111326217651,0.0010000000474974513
0.277641624212265,0.9319999814033508,0.28942233324050903,0.9191111326217651,0.0010000000474974513
0.28266045451164246,0.9319999814033508,0.28925272822380066,0.9191111326217651,0.0010000000474974513
0.2782920300960541,0.9279999732971191,0.2890526354312897,0.9193333387374878,0.0010000000474974513
0.29054898023605347,0.9300000071525574,0.28893357515335083,0.9193333387374878,0.0010000000474974513
0.2821575701236725,0.9279999732971191,0.2887625992298126,0.9193333387374878,0.0010000000474974513
0.2894165515899658,0.9240000247955322,0.28849732875823975,0.9195555448532104,0.0010000000474974513
0.28014713525772095,0.9279999732971191,0.2882218360900879,0.9195555448532104,0.0010000000474974513
0.28139829635620117,0.9300000071525574,0.28802698850631714,0.9197777509689331,0.0010000000474974513
0.2756517231464386,0.9259999990463257,0.2877731919288635,0.9197777509689331,0.0010000000474974513
0.2815863788127899,0.9279999732971191,0.2875696122646332,0.9197777509689331,0.0010000000474974513
0.26861169934272766,0.9319999814033508,0.2873968780040741,0.9197777509689331,0.0010000000474974513
0.2712981402873993,0.9359999895095825,0.2871358096599579,0.9197777509689331,0.0010000000474974513
0.28593549132347107,0.9279999732971191,0.28692424297332764,0.9197777509689331,0.0010000000474974513
0.27380988001823425,0.9319999814033508,0.28670257329940796,0.9197777509689331,0.0010000000474974513
0.27387920022010803,0.9300000071525574,0.28648337721824646,0.9197777509689331,0.0010000000474974513
0.28098008036613464,0.9300000071525574,0.2862246036529541,0.9197777509689331,0.0010000000474974513
0.28544852137565613,0.9279999732971191,0.28603798151016235,0.9197777509689331,0.0010000000474974513
0.27147674560546875,0.9300000071525574,0.28579384088516235,0.9197777509689331,0.0010000000474974513
0.2687378525733948,0.9319999814033508,0.28561851382255554,0.9197777509689331,0.0010000000474974513
0.2728094458580017,0.9319999814033508,0.2853730618953705,0.9200000166893005,0.0010000000474974513
0.26717135310173035,0.9340000152587891,0.28524601459503174,0.9200000166893005,0.0010000000474974513
0.2753622829914093,0.9279999732971191,0.2850498855113983,0.9200000166893005,0.0010000000474974513
0.2744048833847046,0.9300000071525574,0.2848599851131439,0.9200000166893005,0.0010000000474974513
0.27165958285331726,0.9279999732971191,0.2846514880657196,0.9200000166893005,0.0010000000474974513
0.2744487226009369,0.9300000071525574,0.28438469767570496,0.9200000166893005,0.0010000000474974513
0.28011196851730347,0.9300000071525574,0.2841854691505432,0.9200000166893005,0.0010000000474974513
0.2757871747016907,0.9179999828338623,0.2840181887149811,0.9200000166893005,0.0010000000474974513
0.27755096554756165,0.9300000071525574,0.2838327884674072,0.9200000166893005,0.0010000000474974513
0.25818517804145813,0.9319999814033508,0.2837269604206085,0.9200000166893005,0.0010000000474974513
0.2692411243915558,0.9300000071525574,0.28349027037620544,0.9200000166893005,0.0010000000474974513
0.27343133091926575,0.9259999990463257,0.28329193592071533,0.9200000166893005,0.0010000000474974513
0.2763120234012604,0.9279999732971191,0.2830416262149811,0.9200000166893005,0.0010000000474974513
0.26190611720085144,0.9319999814033508,0.28290435671806335,0.9200000166893005,0.0010000000474974513
0.2801928222179413,0.9279999732971191,0.282701700925827,0.9200000166893005,0.0010000000474974513
0.26485806703567505,0.9300000071525574,0.282534658908844,0.9200000166893005,0.0010000000474974513
0.2610688805580139,0.9300000071525574,0.28240737318992615,0.9200000166893005,0.0010000000474974513
0.25521770119667053,0.9319999814033508,0.28229042887687683,0.9200000166893005,0.0010000000474974513
0.2858853340148926,0.9319999814033508,0.28209957480430603,0.9204444289207458,0.0010000000474974513
0.2684032917022705,0.9259999990463257,0.2819865942001343,0.9204444289207458,0.0010000000474974513
0.2846609354019165,0.9319999814033508,0.28174594044685364,0.9206666946411133,0.0010000000474974513
0.26959455013275146,0.9319999814033508,0.2815505564212799,0.9206666946411133,0.0010000000474974513
0.2649417221546173,0.9319999814033508,0.2813456654548645,0.9206666946411133,0.0010000000474974513
0.27136391401290894,0.9259999990463257,0.28118816018104553,0.9206666946411133,0.0010000000474974513
0.2719126045703888,0.9340000152587891,0.2809990644454956,0.9206666946411133,0.0010000000474974513
0.26007482409477234,0.9300000071525574,0.280850350856781,0.9206666946411133,0.0010000000474974513
0.2682989537715912,0.9319999814033508,0.2806555926799774,0.9206666946411133,0.0010000000474974513
0.25166839361190796,0.9259999990463257,0.28051066398620605,0.9206666946411133,0.0010000000474974513
0.2824815511703491,0.9259999990463257,0.28036928176879883,0.9206666946411133,0.0010000000474974513
0.2557610273361206,0.9259999990463257,0.28016597032546997,0.9206666946411133,0.0010000000474974513
0.27676957845687866,0.9300000071525574,0.2800559103488922,0.9206666946411133,0.0010000000474974513
0.2802262008190155,0.9259999990463257,0.2799180746078491,0.9206666946411133,0.0010000000474974513
0.2682632803916931,0.9300000071525574,0.27982354164123535,0.9206666946411133,0.0010000000474974513
0.2680375874042511,0.9340000152587891,0.2796258330345154,0.9206666946411133,0.0010000000474974513
0.25867486000061035,0.9279999732971191,0.27940377593040466,0.9206666946411133,0.0010000000474974513
0.26014965772628784,0.9300000071525574,0.2792210280895233,0.9206666946411133,0.0010000000474974513
0.2560536861419678,0.9319999814033508,0.27900728583335876,0.9206666946411133,0.0010000000474974513
0.26892414689064026,0.9279999732971191,0.2788805067539215,0.9206666946411133,0.0010000000474974513
0.2837139666080475,0.9240000247955322,0.27871689200401306,0.9206666946411133,0.0010000000474974513
0.28116700053215027,0.9319999814033508,0.2786092758178711,0.9206666946411133,0.0010000000474974513
0.2634276747703552,0.9319999814033508,0.2784687876701355,0.9206666946411133,0.0010000000474974513
0.2647443413734436,0.9300000071525574,0.278299480676651,0.9206666946411133,0.0010000000474974513
0.2746662199497223,0.9340000152587891,0.27814698219299316,0.9206666946411133,0.0010000000474974513
0.2710878849029541,0.9300000071525574,0.2779794931411743,0.9206666946411133,0.0010000000474974513
0.26516401767730713,0.9300000071525574,0.2778727412223816,0.9206666946411133,0.0010000000474974513
0.27165308594703674,0.9300000071525574,0.27769771218299866,0.9206666946411133,0.0010000000474974513
0.2596457302570343,0.9300000071525574,0.2774607837200165,0.9206666946411133,0.0010000000474974513
0.2642262578010559,0.9300000071525574,0.27725937962532043,0.9206666946411133,0.0010000000474974513
0.2526664435863495,0.9300000071525574,0.27714505791664124,0.9206666946411133,0.0010000000474974513
0.26924145221710205,0.9279999732971191,0.27700403332710266,0.9206666946411133,0.0010000000474974513
0.25924891233444214,0.9300000071525574,0.2768676280975342,0.9206666946411133,0.0010000000474974513
0.2562546133995056,0.9300000071525574,0.2767416536808014,0.9206666946411133,0.0010000000474974513
0.2661515176296234,0.9319999814033508,0.27663376927375793,0.9206666946411133,0.0010000000474974513
0.2623816430568695,0.9319999814033508,0.2764364182949066,0.9206666946411133,0.0010000000474974513
0.2544969618320465,0.9319999814033508,0.2762775123119354,0.9206666946411133,0.0010000000474974513
0.2656248211860657,0.9279999732971191,0.2760922908782959,0.9206666946411133,0.0010000000474974513
0.2541179656982422,0.9279999732971191,0.2759115397930145,0.9206666946411133,0.0010000000474974513
0.2656415104866028,0.9259999990463257,0.2758115530014038,0.9206666946411133,0.0010000000474974513
0.25891104340553284,0.9319999814033508,0.275561660528183,0.9206666946411133,0.0010000000474974513
0.24469707906246185,0.9300000071525574,0.27544966340065,0.9206666946411133,0.0010000000474974513
0.264636754989624,0.9259999990463257,0.27524593472480774,0.9206666946411133,0.0010000000474974513
0.26379647850990295,0.9319999814033508,0.2749774158000946,0.9206666946411133,0.0010000000474974513
0.27160727977752686,0.9319999814033508,0.2748384475708008,0.9206666946411133,0.0010000000474974513
0.2681402266025543,0.9340000152587891,0.27479419112205505,0.9206666946411133,0.0010000000474974513
0.25411176681518555,0.9340000152587891,0.274604856967926,0.9206666946411133,0.0010000000474974513
0.2576708197593689,0.9319999814033508,0.27444982528686523,0.9206666946411133,0.0010000000474974513
0.26554036140441895,0.9340000152587891,0.2743172347545624,0.9206666946411133,0.0010000000474974513
0.24701334536075592,0.9300000071525574,0.2741835117340088,0.9206666946411133,0.0010000000474974513
0.2699837386608124,0.9319999814033508,0.2739744186401367,0.9206666946411133,0.0010000000474974513
0.25143134593963623,0.9319999814033508,0.2738507390022278,0.9206666946411133,0.0010000000474974513
0.27405402064323425,0.9319999814033508,0.2736603915691376,0.9206666946411133,0.0010000000474974513
0.25537997484207153,0.9319999814033508,0.2735098898410797,0.9206666946411133,0.0010000000474974513
0.2444852739572525,0.9279999732971191,0.27338844537734985,0.9206666946411133,0.0010000000474974513
0.2514161467552185,0.9300000071525574,0.27325406670570374,0.9206666946411133,0.0010000000474974513
0.2490873634815216,0.9279999732971191,0.2731647491455078,0.9206666946411133,0.0010000000474974513
0.2530818581581116,0.9300000071525574,0.27300840616226196,0.9206666946411133,0.0010000000474974513
0.25643637776374817,0.9319999814033508,0.2728312313556671,0.9206666946411133,0.0010000000474974513
0.24996626377105713,0.9319999814033508,0.27272292971611023,0.9206666946411133,0.0010000000474974513
0.2557252049446106,0.9279999732971191,0.2725962996482849,0.9206666946411133,0.0010000000474974513
0.25980716943740845,0.9279999732971191,0.2723710238933563,0.9208889007568359,0.0010000000474974513
0.26227402687072754,0.9279999732971191,0.27214616537094116,0.9208889007568359,0.0010000000474974513
0.2580544948577881,0.9340000152587891,0.27205923199653625,0.9208889007568359,0.0010000000474974513
0.2570611834526062,0.9340000152587891,0.27192753553390503,0.9208889007568359,0.0010000000474974513
0.2657516896724701,0.9300000071525574,0.271770179271698,0.9208889007568359,0.0010000000474974513
0.2651456594467163,0.9300000071525574,0.2716321647167206,0.9208889007568359,0.0010000000474974513
0.26113438606262207,0.9340000152587891,0.27152398228645325,0.9208889007568359,0.0010000000474974513
0.2613620460033417,0.9319999814033508,0.27136626839637756,0.9208889007568359,0.0010000000474974513
0.2582002282142639,0.9319999814033508,0.2711678743362427,0.9208889007568359,0.0010000000474974513
0.24522869288921356,0.9340000152587891,0.27101731300354004,0.9208889007568359,0.0010000000474974513
0.2667325437068939,0.9300000071525574,0.27092382311820984,0.9208889007568359,0.0010000000474974513
0.26845604181289673,0.9319999814033508,0.2707567811012268,0.9208889007568359,0.0010000000474974513
0.2602511942386627,0.9340000152587891,0.2706022262573242,0.9208889007568359,0.0010000000474974513
0.25808098912239075,0.9279999732971191,0.27049556374549866,0.9208889007568359,0.0010000000474974513
0.2546641230583191,0.9319999814033508,0.27037712931632996,0.9208889007568359,0.0010000000474974513
0.2570163905620575,0.9279999732971191,0.27027228474617004,0.9208889007568359,0.0010000000474974513
0.25090476870536804,0.9319999814033508,0.27013009786605835,0.9208889007568359,0.0010000000474974513
0.24956877529621124,0.9340000152587891,0.2699846029281616,0.9208889007568359,0.0010000000474974513
0.2585020959377289,0.9340000152587891,0.2698114514350891,0.9208889007568359,0.0010000000474974513
0.26208239793777466,0.9300000071525574,0.2696807086467743,0.9208889007568359,0.0010000000474974513
0.2535068392753601,0.9340000152587891,0.26953697204589844,0.9208889007568359,0.0010000000474974513
0.25309380888938904,0.9319999814033508,0.2694300413131714,0.9208889007568359,0.0010000000474974513
0.2555283308029175,0.9300000071525574,0.2692825496196747,0.9208889007568359,0.0010000000474974513
0.25752800703048706,0.9319999814033508,0.26916056871414185,0.9208889007568359,0.0010000000474974513
0.2462274730205536,0.9359999895095825,0.2690185308456421,0.9208889007568359,0.0010000000474974513
0.24237598478794098,0.9319999814033508,0.26894786953926086,0.9208889007568359,0.0010000000474974513
0.25706958770751953,0.9319999814033508,0.26885712146759033,0.9208889007568359,0.0010000000474974513
0.2483089119195938,0.9279999732971191,0.26870861649513245,0.9208889007568359,0.0010000000474974513
0.24711501598358154,0.9319999814033508,0.2685868740081787,0.9208889007568359,0.0010000000474974513
0.2471795231103897,0.9380000233650208,0.268500417470932,0.9208889007568359,0.0010000000474974513
0.2587260603904724,0.9340000152587891,0.26833927631378174,0.9208889007568359,0.0010000000474974513
0.24867911636829376,0.9319999814033508,0.2682008743286133,0.9208889007568359,0.0010000000474974513
0.24038894474506378,0.9319999814033508,0.2680475115776062,0.9208889007568359,0.0010000000474974513
0.25960639119148254,0.9279999732971191,0.26797863841056824,0.9208889007568359,0.0010000000474974513
0.25583142042160034,0.9300000071525574,0.2679027318954468,0.9208889007568359,0.0010000000474974513
0.2679433822631836,0.9300000071525574,0.2677622139453888,0.9208889007568359,0.0010000000474974513
0.2416827231645584,0.9300000071525574,0.26760968565940857,0.9208889007568359,0.0010000000474974513
0.2498493641614914,0.9340000152587891,0.26745837926864624,0.9208889007568359,0.0010000000474974513
0.25252407789230347,0.9279999732971191,0.2673543393611908,0.9208889007568359,0.0010000000474974513
0.25492408871650696,0.9319999814033508,0.26720044016838074,0.9208889007568359,0.0010000000474974513
0.2620806396007538,0.9300000071525574,0.26705434918403625,0.9208889007568359,0.0010000000474974513
0.24778053164482117,0.9319999814033508,0.2669295370578766,0.9208889007568359,0.0010000000474974513
0.26175764203071594,0.9300000071525574,0.266767293214798,0.9208889007568359,0.0010000000474974513
0.23664891719818115,0.9319999814033508,0.2666341960430145,0.9208889007568359,0.0010000000474974513
0.23883622884750366,0.9279999732971191,0.2664993703365326,0.9208889007568359,0.0010000000474974513
0.26003947854042053,0.9340000152587891,0.2663266956806183,0.9208889007568359,0.0010000000474974513
0.24424579739570618,0.9319999814033508,0.266287624835968,0.9208889007568359,0.0010000000474974513
0.24889694154262543,0.9319999814033508,0.2661189138889313,0.9208889007568359,0.0010000000474974513
0.25038453936576843,0.9279999732971191,0.2659795880317688,0.9208889007568359,0.0010000000474974513
0.26141199469566345,0.9300000071525574,0.2658964991569519,0.9208889007568359,0.0010000000474974513
0.23922216892242432,0.9340000152587891,0.2657635807991028,0.9208889007568359,0.0010000000474974513
0.24650712311267853,0.9359999895095825,0.26561790704727173,0.9208889007568359,0.0010000000474974513
0.2431546300649643,0.9300000071525574,0.2655300199985504,0.9208889007568359,0.0010000000474974513
0.24217505753040314,0.9319999814033508,0.2653191387653351,0.9208889007568359,0.0010000000474974513
0.2496432512998581,0.9340000152587891,0.26514068245887756,0.9208889007568359,0.0010000000474974513
0.25795671343803406,0.9279999732971191,0.26500579714775085,0.9208889007568359,0.0010000000474974513
0.2492893785238266,0.9319999814033508,0.2648645341396332,0.9208889007568359,0.0010000000474974513
0.2407142072916031,0.9380000233650208,0.2647574245929718,0.9208889007568359,0.0010000000474974513
0.24817751348018646,0.9300000071525574,0.26452845335006714,0.9208889007568359,0.0010000000474974513
0.2449566125869751,0.9279999732971191,0.26436176896095276,0.9208889007568359,0.0010000000474974513
0.23207692801952362,0.9319999814033508,0.264299213886261,0.9208889007568359,0.0010000000474974513
0.25555387139320374,0.9340000152587891,0.2641494870185852,0.9208889007568359,0.0010000000474974513
0.2486223727464676,0.9359999895095825,0.26399630308151245,0.9208889007568359,0.0010000000474974513
0.25286513566970825,0.9300000071525574,0.26380231976509094,0.9208889007568359,0.0010000000474974513
0.23469741642475128,0.9340000152587891,0.2636425793170929,0.9208889007568359,0.0010000000474974513
0.2396513819694519,0.9319999814033508,0.26357200741767883,0.9208889007568359,0.0010000000474974513
0.22445572912693024,0.9319999814033508,0.26352229714393616,0.9208889007568359,0.0010000000474974513
0.22279372811317444,0.9380000233650208,0.2634212374687195,0.9208889007568359,0.0010000000474974513
0.2494334578514099,0.9359999895095825,0.26338014006614685,0.9208889007568359,0.0010000000474974513
0.25688618421554565,0.9300000071525574,0.2632673382759094,0.9208889007568359,0.0010000000474974513
0.24190020561218262,0.9340000152587891,0.26314204931259155,0.9208889007568359,0.0010000000474974513
0.2484956681728363,0.9359999895095825,0.2631186246871948,0.9208889007568359,0.0010000000474974513
0.24287964403629303,0.9319999814033508,0.2629915773868561,0.9208889007568359,0.0010000000474974513
0.24566707015037537,0.9359999895095825,0.2628842294216156,0.9208889007568359,0.0010000000474974513
0.2535964548587799,0.9319999814033508,0.2627101540565491,0.9208889007568359,0.0010000000474974513
0.24136024713516235,0.9340000152587891,0.26264166831970215,0.9208889007568359,0.0010000000474974513
0.2543230354785919,0.9319999814033508,0.2625492215156555,0.9208889007568359,0.0010000000474974513
0.2338326871395111,0.9300000071525574,0.2624238133430481,0.9208889007568359,0.0010000000474974513
0.2503446638584137,0.9279999732971191,0.2622435986995697,0.9208889007568359,0.0010000000474974513
0.24663157761096954,0.9359999895095825,0.2621486783027649,0.9208889007568359,0.0010000000474974513
0.24605423212051392,0.9340000152587891,0.26206067204475403,0.9208889007568359,0.0010000000474974513
0.24642431735992432,0.9340000152587891,0.26196762919425964,0.9208889007568359,0.0010000000474974513
0.24551010131835938,0.9279999732971191,0.2618546783924103,0.9208889007568359,0.0010000000474974513
0.235482320189476,0.9359999895095825,0.26179322600364685,0.9208889007568359,0.0010000000474974513
0.22855064272880554,0.9380000233650208,0.2617500126361847,0.9208889007568359,0.0010000000474974513
0.23757798969745636,0.9340000152587891,0.26164722442626953,0.9208889007568359,0.0010000000474974513
0.23881517350673676,0.9319999814033508,0.2615465521812439,0.9208889007568359,0.0010000000474974513
0.25364601612091064,0.9340000152587891,0.2614766061306,0.9208889007568359,0.0010000000474974513
0.2528984844684601,0.9319999814033508,0.2614043056964874,0.9208889007568359,0.0010000000474974513
0.2374487817287445,0.9359999895095825,0.2612433135509491,0.9208889007568359,0.0010000000474974513
0.2365868091583252,0.9319999814033508,0.26108723878860474,0.9208889007568359,0.0010000000474974513
0.24691073596477509,0.9319999814033508,0.2609402537345886,0.9208889007568359,0.0010000000474974513
0.24422380328178406,0.9380000233650208,0.2608478367328644,0.9208889007568359,0.0010000000474974513
0.25644421577453613,0.9319999814033508,0.26074692606925964,0.9208889007568359,0.0010000000474974513
0.25089916586875916,0.9319999814033508,0.2605731189250946,0.9208889007568359,0.0010000000474974513
0.24052724242210388,0.9340000152587891,0.26042118668556213,0.9208889007568359,0.0010000000474974513
0.23307368159294128,0.9340000152587891,0.2603601813316345,0.9208889007568359,0.0010000000474974513
0.23832617700099945,0.9300000071525574,0.26026979088783264,0.9208889007568359,0.0010000000474974513
0.23689252138137817,0.9319999814033508,0.2602265775203705,0.9208889007568359,0.0010000000474974513
0.22794832289218903,0.9300000071525574,0.26014116406440735,0.9208889007568359,0.0010000000474974513
0.2371203750371933,0.9359999895095825,0.259983628988266,0.9208889007568359,0.0010000000474974513
0.23643529415130615,0.9300000071525574,0.25995221734046936,0.9208889007568359,0.0010000000474974513
0.23156332969665527,0.9340000152587891,0.2597942054271698,0.9208889007568359,0.0010000000474974513
0.23105591535568237,0.9380000233650208,0.2597367763519287,0.9208889007568359,0.0010000000474974513
0.23933599889278412,0.9300000071525574,0.2596069276332855,0.9208889007568359,0.0010000000474974513
0.2322387844324112,0.9300000071525574,0.25956636667251587,0.9208889007568359,0.0010000000474974513
0.2366628348827362,0.9340000152587891,0.2594287395477295,0.9208889007568359,0.0010000000474974513
0.235936239361763,0.9319999814033508,0.2593264579772949,0.9208889007568359,0.0010000000474974513
0.23720002174377441,0.9340000152587891,0.25927937030792236,0.9208889007568359,0.0010000000474974513
0.22947324812412262,0.9359999895095825,0.2591663897037506,0.9208889007568359,0.0010000000474974513
0.21806840598583221,0.9359999895095825,0.2590167224407196,0.9208889007568359,0.0010000000474974513
0.23880204558372498,0.9340000152587891,0.2589140236377716,0.9208889007568359,0.0010000000474974513
0.23421086370944977,0.9279999732971191,0.2588306963443756,0.9208889007568359,0.0010000000474974513
0.23242895305156708,0.9340000152587891,0.25869107246398926,0.9208889007568359,0.0010000000474974513
0.23730798065662384,0.9279999732971191,0.258546382188797,0.9208889007568359,0.0010000000474974513
0.2237473875284195,0.9380000233650208,0.25844717025756836,0.9208889007568359,0.0010000000474974513
0.24027208983898163,0.9319999814033508,0.25834834575653076,0.9211111068725586,0.0010000000474974513
0.2451520413160324,0.9340000152587891,0.2582930028438568,0.9211111068725586,0.0010000000474974513
0.2420635223388672,0.9319999814033508,0.2582239806652069,0.9211111068725586,0.0010000000474974513
0.24122704565525055,0.9340000152587891,0.2582073211669922,0.9211111068725586,0.0010000000474974513
0.23724350333213806,0.9319999814033508,0.2581048607826233,0.9211111068725586,0.0010000000474974513
0.24192602932453156,0.9340000152587891,0.25801026821136475,0.9211111068725586,0.0010000000474974513
0.24228499829769135,0.9279999732971191,0.25793951749801636,0.9211111068725586,0.0010000000474974513
0.23211325705051422,0.9340000152587891,0.2577432692050934,0.9211111068725586,0.0010000000474974513
0.23395924270153046,0.9380000233650208,0.25759750604629517,0.9211111068725586,0.0010000000474974513
0.25169017910957336,0.9300000071525574,0.25742387771606445,0.9211111068725586,0.0010000000474974513
0.236420676112175,0.9319999814033508,0.2572757303714752,0.9211111068725586,0.0010000000474974513
0.24957898259162903,0.9300000071525574,0.25720056891441345,0.9211111068725586,0.0010000000474974513
0.24008490145206451,0.9340000152587891,0.25707775354385376,0.9211111068725586,0.0010000000474974513
0.2384285181760788,0.9319999814033508,0.25702691078186035,0.9211111068725586,0.0010000000474974513
0.23067651689052582,0.9380000233650208,0.25690075755119324,0.9211111068725586,0.0010000000474974513
0.2381616085767746,0.9380000233650208,0.25684601068496704,0.9211111068725586,0.0010000000474974513
0.2275896817445755,0.9340000152587891,0.25677651166915894,0.9211111068725586,0.0010000000474974513
0.23420004546642303,0.9340000152587891,0.25667884945869446,0.9211111068725586,0.0010000000474974513
0.2231246531009674,0.9300000071525574,0.25652772188186646,0.9211111068725586,0.0010000000474974513
0.23730701208114624,0.9319999814033508,0.2564508616924286,0.9211111068725586,0.0010000000474974513
0.23526804149150848,0.9319999814033508,0.2563404440879822,0.9211111068725586,0.0010000000474974513
0.22436419129371643,0.9300000071525574,0.25626692175865173,0.9211111068725586,0.0010000000474974513
0.23240002989768982,0.9359999895095825,0.256203293800354,0.9211111068725586,0.0010000000474974513
0.24543654918670654,0.9340000152587891,0.2561696767807007,0.9211111068725586,0.0010000000474974513
0.22556178271770477,0.9359999895095825,0.2560747563838959,0.9211111068725586,0.0010000000474974513
0.23328223824501038,0.9340000152587891,0.2560020983219147,0.9211111068725586,0.0010000000474974513
0.2443525493144989,0.9340000152587891,0.2558802366256714,0.9211111068725586,0.0010000000474974513
0.25037485361099243,0.9300000071525574,0.2557293772697449,0.9211111068725586,0.0010000000474974513
0.2317323088645935,0.9340000152587891,0.25560781359672546,0.9211111068725586,0.0010000000474974513
0.2290755957365036,0.9359999895095825,0.2554975152015686,0.9213333129882812,0.0010000000474974513
0.22770409286022186,0.9359999895095825,0.25542834401130676,0.9213333129882812,0.0010000000474974513
0.2323085069656372,0.9319999814033508,0.25538763403892517,0.9213333129882812,0.0010000000474974513
0.24518437683582306,0.9300000071525574,0.25540870428085327,0.9213333129882812,0.0010000000474974513
0.2247200906276703,0.9399999976158142,0.2553960680961609,0.9213333129882812,0.0010000000474974513
0.24109837412834167,0.9359999895095825,0.25533604621887207,0.9213333129882812,0.0010000000474974513
0.23762108385562897,0.9340000152587891,0.255342960357666,0.9213333129882812,0.0010000000474974513
0.22979676723480225,0.9340000152587891,0.2552536427974701,0.9213333129882812,0.0010000000474974513
0.23644116520881653,0.9319999814033508,0.25516074895858765,0.9213333129882812,0.0010000000474974513
0.23985661566257477,0.9340000152587891,0.25501933693885803,0.9213333129882812,0.0010000000474974513
0.2402082234621048,0.9300000071525574,0.25496625900268555,0.9213333129882812,0.0010000000474974513
0.22591984272003174,0.9359999895095825,0.2548377513885498,0.9215555787086487,0.0010000000474974513
0.23246602714061737,0.9359999895095825,0.254806786775589,0.9213333129882812,0.0010000000474974513
0.2263103872537613,0.9319999814033508,0.25473326444625854,0.9215555787086487,0.0010000000474974513
0.2290842980146408,0.9319999814033508,0.2546725869178772,0.9215555787086487,0.0010000000474974513
0.2346668839454651,0.9340000152587891,0.2545822560787201,0.9215555787086487,0.0010000000474974513
0.2313545048236847,0.9359999895095825,0.25450950860977173,0.9215555787086487,0.0010000000474974513
0.22532451152801514,0.9359999895095825,0.2543871998786926,0.9215555787086487,0.0010000000474974513
0.22338753938674927,0.9380000233650208,0.2542785704135895,0.9215555787086487,0.0010000000474974513
0.23505951464176178,0.9300000071525574,0.25416192412376404,0.9215555787086487,0.0010000000474974513
0.24549725651741028,0.9319999814033508,0.2540355622768402,0.9217777848243713,0.0010000000474974513
0.23653829097747803,0.9359999895095825,0.25391727685928345,0.9217777848243713,0.0010000000474974513
0.2314211130142212,0.9359999895095825,0.25381577014923096,0.9217777848243713,0.0010000000474974513
0.22157682478427887,0.9340000152587891,0.2537478804588318,0.9217777848243713,0.0010000000474974513
0.23904715478420258,0.9359999895095825,0.2537316679954529,0.9217777848243713,0.0010000000474974513
0.2356492131948471,0.9340000152587891,0.25365567207336426,0.9217777848243713,0.0010000000474974513
0.23115617036819458,0.9319999814033508,0.25360122323036194,0.921999990940094,0.0010000000474974513
0.2312307208776474,0.9359999895095825,0.2535457909107208,0.9224444627761841,0.0010000000474974513
0.2286595106124878,0.9359999895095825,0.2534974217414856,0.9224444627761841,0.0010000000474974513
0.23358069360256195,0.9359999895095825,0.2534598112106323,0.9226666688919067,0.0010000000474974513
0.23470857739448547,0.9319999814033508,0.2533816695213318,0.9226666688919067,0.0010000000474974513
0.22229787707328796,0.9300000071525574,0.2532859742641449,0.9226666688919067,0.0010000000474974513
0.22182975709438324,0.9340000152587891,0.2531636953353882,0.9226666688919067,0.0010000000474974513
0.23168738186359406,0.9319999814033508,0.25307831168174744,0.9226666688919067,0.0010000000474974513
0.24294285476207733,0.9340000152587891,0.2529422342777252,0.9226666688919067,0.0010000000474974513
0.23045948147773743,0.9359999895095825,0.25297990441322327,0.9226666688919067,0.0010000000474974513
0.23548968136310577,0.9340000152587891,0.25284019112586975,0.9226666688919067,0.0010000000474974513
0.2403348684310913,0.9300000071525574,0.25266996026039124,0.9228888750076294,0.0010000000474974513
0.22705835103988647,0.9359999895095825,0.2526089549064636,0.9228888750076294,0.0010000000474974513
0.22480830550193787,0.9359999895095825,0.2525341510772705,0.9228888750076294,0.0010000000474974513
0.23866015672683716,0.9359999895095825,0.2524556815624237,0.9228888750076294,0.0010000000474974513
0.23542164266109467,0.9399999976158142,0.2523503601551056,0.9228888750076294,0.0010000000474974513
0.2208331823348999,0.9380000233650208,0.2523018717765808,0.9228888750076294,0.0010000000474974513
0.25214895606040955,0.9380000233650208,0.25223055481910706,0.9231111407279968,0.0010000000474974513
0.2317531257867813,0.9359999895095825,0.2521003186702728,0.9231111407279968,0.0010000000474974513
0.2277391254901886,0.9340000152587891,0.2520214021205902,0.9231111407279968,0.0010000000474974513
0.23739750683307648,0.9340000152587891,0.25189298391342163,0.9231111407279968,0.0010000000474974513
0.2414761483669281,0.9340000152587891,0.25182804465293884,0.9233333468437195,0.0010000000474974513
0.23608778417110443,0.9340000152587891,0.2517174482345581,0.9233333468437195,0.0010000000474974513
0.22642414271831512,0.9319999814033508,0.25165724754333496,0.9233333468437195,0.0010000000474974513
0.23961074650287628,0.9319999814033508,0.2515872120857239,0.9233333468437195,0.0010000000474974513
0.24090860784053802,0.9300000071525574,0.2515081465244293,0.9233333468437195,0.0010000000474974513
0.24556997418403625,0.9319999814033508,0.25145360827445984,0.9233333468437195,0.0010000000474974513
0.22270971536636353,0.9340000152587891,0.2513963580131531,0.9233333468437195,0.0010000000474974513
0.217081680893898,0.9380000233650208,0.2513442933559418,0.9233333468437195,0.0010000000474974513
0.2349950224161148,0.9340000152587891,0.2512351870536804,0.9233333468437195,0.0010000000474974513
0.22419951856136322,0.9359999895095825,0.2511453926563263,0.9233333468437195,0.0010000000474974513
0.22628356516361237,0.9340000152587891,0.25105828046798706,0.9233333468437195,0.0010000000474974513
0.23845645785331726,0.9300000071525574,0.2510330379009247,0.9233333468437195,0.0010000000474974513
0.2421075403690338,0.9399999976158142,0.2509981691837311,0.9233333468437195,0.0010000000474974513
0.23720163106918335,0.9340000152587891,0.2509753108024597,0.9233333468437195,0.0010000000474974513
0.22727657854557037,0.9359999895095825,0.250908225774765,0.9235555529594421,0.0010000000474974513
0.22053717076778412,0.9359999895095825,0.25078049302101135,0.9235555529594421,0.0010000000474974513
0.24623169004917145,0.9340000152587891,0.2507489025592804,0.9235555529594421,0.0010000000474974513
0.22175388038158417,0.9399999976158142,0.25067755579948425,0.9235555529594421,0.0010000000474974513
0.2332395613193512,0.9319999814033508,0.25055286288261414,0.9235555529594421,0.0010000000474974513
0.22312189638614655,0.9340000152587891,0.2505697011947632,0.9235555529594421,0.0010000000474974513
0.23703737556934357,0.9359999895095825,0.25041574239730835,0.9235555529594421,0.0010000000474974513
0.22306933999061584,0.9319999814033508,0.25034332275390625,0.9235555529594421,0.0010000000474974513
0.24272681772708893,0.9300000071525574,0.25027212500572205,0.9235555529594421,0.0010000000474974513
0.22365878522396088,0.9340000152587891,0.25011003017425537,0.9235555529594421,0.0010000000474974513
0.2453075796365738,0.9340000152587891,0.2500714063644409,0.9235555529594421,0.0010000000474974513
0.21371784806251526,0.9300000071525574,0.2500145733356476,0.9235555529594421,0.0010000000474974513
0.21781116724014282,0.9340000152587891,0.24993552267551422,0.9237777590751648,0.0010000000474974513
0.2323920726776123,0.9340000152587891,0.24990127980709076,0.9237777590751648,0.0010000000474974513
0.2304535210132599,0.9340000152587891,0.2498149424791336,0.9240000247955322,0.0010000000474974513
0.22486449778079987,0.9340000152587891,0.2497544288635254,0.9240000247955322,0.0010000000474974513
0.22837626934051514,0.9340000152587891,0.2496742606163025,0.9240000247955322,0.0010000000474974513
0.23450207710266113,0.9340000152587891,0.2496328353881836,0.9240000247955322,0.0010000000474974513
0.2394154965877533,0.9359999895095825,0.24950499832630157,0.9242222309112549,0.0010000000474974513
0.2272731214761734,0.9359999895095825,0.24950745701789856,0.9242222309112549,0.0010000000474974513
0.22587142884731293,0.9340000152587891,0.2494359016418457,0.9246666431427002,0.0010000000474974513
0.23010529577732086,0.9340000152587891,0.2492840439081192,0.9246666431427002,0.0010000000474974513
0.22838658094406128,0.9300000071525574,0.24914756417274475,0.9246666431427002,0.0010000000474974513
0.2417195588350296,0.9300000071525574,0.24910536408424377,0.9246666431427002,0.0010000000474974513
0.21517792344093323,0.9380000233650208,0.24900802969932556,0.9251111149787903,0.0010000000474974513
0.22832109034061432,0.9359999895095825,0.2489282190799713,0.9251111149787903,0.0010000000474974513
0.2219802290201187,0.9340000152587891,0.248857319355011,0.9253333210945129,0.0010000000474974513
0.24102334678173065,0.9380000233650208,0.2487984001636505,0.9253333210945129,0.0010000000474974513
0.22767072916030884,0.9359999895095825,0.24872705340385437,0.9251111149787903,0.0010000000474974513
0.22076815366744995,0.9380000233650208,0.248646080493927,0.9253333210945129,0.0010000000474974513
0.22306014597415924,0.9359999895095825,0.24851985275745392,0.9253333210945129,0.0010000000474974513
0.22715511918067932,0.9399999976158142,0.24844995141029358,0.9259999990463257,0.0010000000474974513
0.22379833459854126,0.9340000152587891,0.24844083189964294,0.9262222051620483,0.0010000000474974513
0.2275485247373581,0.9380000233650208,0.24837163090705872,0.9262222051620483,0.0010000000474974513
0.23010104894638062,0.9340000152587891,0.24839721620082855,0.9259999990463257,0.0010000000474974513
0.223876953125,0.9359999895095825,0.24836257100105286,0.9259999990463257,0.0010000000474974513
0.227278932929039,0.9380000233650208,0.24830017983913422,0.9262222051620483,0.0010000000474974513
0.21123898029327393,0.9380000233650208,0.248249351978302,0.9262222051620483,0.0010000000474974513
0.21772421896457672,0.9340000152587891,0.24817509949207306,0.9264444708824158,0.0010000000474974513
0.23657678067684174,0.9340000152587891,0.24811406433582306,0.9264444708824158,0.0010000000474974513
0.23310747742652893,0.9340000152587891,0.24806641042232513,0.9264444708824158,0.0010000000474974513
0.22460505366325378,0.9359999895095825,0.2480328232049942,0.9264444708824158,0.0010000000474974513
0.2268160879611969,0.9380000233650208,0.24794480204582214,0.9264444708824158,0.0010000000474974513
0.2254178524017334,0.9340000152587891,0.24786067008972168,0.9266666769981384,0.0010000000474974513
0.21726565062999725,0.9300000071525574,0.2478811889886856,0.9266666769981384,0.0010000000474974513
0.2363976091146469,0.9340000152587891,0.24788254499435425,0.9266666769981384,0.0010000000474974513
0.22523313760757446,0.9359999895095825,0.24775263667106628,0.9266666769981384,0.0010000000474974513
0.22176477313041687,0.9380000233650208,0.24772576987743378,0.9266666769981384,0.0010000000474974513
0.20679594576358795,0.9399999976158142,0.2476525902748108,0.9266666769981384,0.0010000000474974513
0.23569177091121674,0.9340000152587891,0.24758325517177582,0.9266666769981384,0.0010000000474974513
0.21740062534809113,0.9419999718666077,0.2474972903728485,0.9268888831138611,0.0010000000474974513
0.22712577879428864,0.9359999895095825,0.24736514687538147,0.9268888831138611,0.0010000000474974513
0.21408799290657043,0.9380000233650208,0.24730968475341797,0.9268888831138611,0.0010000000474974513
0.215608149766922,0.9340000152587891,0.24727173149585724,0.9271110892295837,0.0010000000474974513
0.21026229858398438,0.9359999895095825,0.2472619116306305,0.9271110892295837,0.0010000000474974513
0.23164202272891998,0.9380000233650208,0.247182697057724,0.9271110892295837,0.0010000000474974513
0.2108648121356964,0.9340000152587891,0.24709603190422058,0.9271110892295837,0.0010000000474974513
0.20942266285419464,0.9399999976158142,0.24703656136989594,0.9271110892295837,0.0010000000474974513
0.22926901280879974,0.9380000233650208,0.24703863263130188,0.9271110892295837,0.0010000000474974513
0.22410109639167786,0.9300000071525574,0.24697469174861908,0.9273333549499512,0.0010000000474974513
0.21247047185897827,0.9399999976158142,0.24693699181079865,0.9273333549499512,0.0010000000474974513
0.2228626310825348,0.9359999895095825,0.24686594307422638,0.9275555610656738,0.0010000000474974513
0.20319096744060516,0.9399999976158142,0.24683959782123566,0.9275555610656738,0.0010000000474974513
0.22761794924736023,0.9380000233650208,0.2467307597398758,0.9277777671813965,0.0010000000474974513
0.21423202753067017,0.9359999895095825,0.24660854041576385,0.9279999732971191,0.0010000000474974513
0.2253768891096115,0.9380000233650208,0.24648673832416534,0.9279999732971191,0.0010000000474974513
0.22284910082817078,0.9399999976158142,0.24638183414936066,0.9282222390174866,0.0010000000474974513
0.23045291006565094,0.9340000152587891,0.2463059425354004,0.9282222390174866,0.0010000000474974513
0.22286982834339142,0.9380000233650208,0.2461913526058197,0.9282222390174866,0.0010000000474974513
0.22268828749656677,0.9380000233650208,0.24609901010990143,0.9284444451332092,0.0010000000474974513
0.22315853834152222,0.9340000152587891,0.2460588961839676,0.9284444451332092,0.0010000000474974513
0.22728335857391357,0.9340000152587891,0.24597805738449097,0.9284444451332092,0.0010000000474974513
0.21307002007961273,0.9359999895095825,0.24594740569591522,0.9284444451332092,0.0010000000474974513
0.22044764459133148,0.9359999895095825,0.24585126340389252,0.9282222390174866,0.0010000000474974513
0.216849222779274,0.9380000233650208,0.24573323130607605,0.9282222390174866,0.0010000000474974513
0.209761843085289,0.9359999895095825,0.2456667274236679,0.9282222390174866,0.0010000000474974513
0.21348696947097778,0.9380000233650208,0.2455996572971344,0.9282222390174866,0.0010000000474974513
0.2023855447769165,0.9359999895095825,0.2455921471118927,0.9284444451332092,0.0010000000474974513
0.22045066952705383,0.9340000152587891,0.2454720288515091,0.9284444451332092,0.0010000000474974513
0.227861687541008,0.9380000233650208,0.24542759358882904,0.9286666512489319,0.0010000000474974513
0.21691159904003143,0.9399999976158142,0.24538061022758484,0.9286666512489319,0.0010000000474974513
0.21925507485866547,0.9380000233650208,0.24530856311321259,0.9286666512489319,0.0010000000474974513
0.20969286561012268,0.9380000233650208,0.24520502984523773,0.9288889169692993,0.0010000000474974513
0.22732286155223846,0.9359999895095825,0.24511292576789856,0.9288889169692993,0.0010000000474974513
0.2173432856798172,0.9340000152587891,0.245119109749794,0.9288889169692993,0.0010000000474974513
0.22062532603740692,0.9459999799728394,0.2450699806213379,0.929111123085022,0.0010000000474974513
0.23351533710956573,0.9340000152587891,0.2450980842113495,0.9293333292007446,0.0010000000474974513
0.2216237336397171,0.9380000233650208,0.24512283504009247,0.9293333292007446,0.0010000000474974513
0.21324849128723145,0.9419999718666077,0.24506458640098572,0.9293333292007446,0.0010000000474974513
0.22810067236423492,0.9319999814033508,0.24503158032894135,0.9293333292007446,0.0010000000474974513
0.22933369874954224,0.9279999732971191,0.24494905769824982,0.9295555353164673,0.0010000000474974513
0.2128499299287796,0.9399999976158142,0.2449001967906952,0.9297778010368347,0.0010000000474974513
0.2184310257434845,0.9359999895095825,0.24487589299678802,0.9297778010368347,0.0010000000474974513
0.2285686433315277,0.9399999976158142,0.24485169351100922,0.9297778010368347,0.0010000000474974513
0.21578054130077362,0.9380000233650208,0.24478377401828766,0.9300000071525574,0.0010000000474974513
0.20984503626823425,0.9340000152587891,0.24479888379573822,0.9300000071525574,0.0010000000474974513
0.2083013951778412,0.9380000233650208,0.2447568029165268,0.9300000071525574,0.0010000000474974513
0.22141852974891663,0.9300000071525574,0.24458585679531097,0.9300000071525574,0.0010000000474974513
0.20848044753074646,0.9359999895095825,0.2445789873600006,0.9300000071525574,0.0010000000474974513
0.21165642142295837,0.9359999895095825,0.24450917541980743,0.9300000071525574,0.0010000000474974513
0.22903823852539062,0.9359999895095825,0.2444063276052475,0.9300000071525574,0.0010000000474974513
0.2017441689968109,0.9380000233650208,0.24432356655597687,0.93022221326828,0.0010000000474974513
0.20893871784210205,0.9319999814033508,0.24431702494621277,0.93022221326828,0.0010000000474974513
0.2206994891166687,0.9319999814033508,0.24418844282627106,0.9304444193840027,0.0010000000474974513
0.22132843732833862,0.9359999895095825,0.24415519833564758,0.9304444193840027,0.0010000000474974513
0.21382080018520355,0.9399999976158142,0.2441219836473465,0.9304444193840027,0.0010000000474974513
0.2214159369468689,0.9380000233650208,0.24402086436748505,0.9304444193840027,0.0010000000474974513
0.2246227115392685,0.9319999814033508,0.2439611554145813,0.9304444193840027,0.0010000000474974513
0.19917191565036774,0.9399999976158142,0.24391737580299377,0.9304444193840027,0.0010000000474974513
0.21257850527763367,0.9419999718666077,0.24387255311012268,0.9304444193840027,0.0010000000474974513
0.1977231800556183,0.9399999976158142,0.24379834532737732,0.9304444193840027,0.0010000000474974513
0.23788237571716309,0.9340000152587891,0.24371519684791565,0.9306666851043701,0.0010000000474974513
0.215309739112854,0.9380000233650208,0.24368838965892792,0.9306666851043701,0.0010000000474974513
0.21732980012893677,0.9319999814033508,0.24358469247817993,0.9308888912200928,0.0010000000474974513
0.2146960347890854,0.9359999895095825,0.24355272948741913,0.9308888912200928,0.0010000000474974513
0.20136192440986633,0.9419999718666077,0.24355390667915344,0.9308888912200928,0.0010000000474974513
0.22180764377117157,0.9380000233650208,0.24354630708694458,0.9311110973358154,0.0010000000474974513
0.22459496557712555,0.9359999895095825,0.24349360167980194,0.9311110973358154,0.0010000000474974513
0.21441860496997833,0.9380000233650208,0.24348510801792145,0.9311110973358154,0.0010000000474974513
0.210348978638649,0.9380000233650208,0.24347369372844696,0.9311110973358154,0.0010000000474974513
0.2158290445804596,0.9359999895095825,0.243458554148674,0.9311110973358154,0.0010000000474974513
0.2259465456008911,0.9279999732971191,0.2433820217847824,0.9311110973358154,0.0010000000474974513
0.21425887942314148,0.9399999976158142,0.24334736168384552,0.9311110973358154,0.0010000000474974513
0.21928845345973969,0.9399999976158142,0.2432524710893631,0.9311110973358154,0.0010000000474974513
0.206748366355896,0.9340000152587891,0.24320073425769806,0.9311110973358154,0.0010000000474974513
0.2128925621509552,0.9380000233650208,0.24309086799621582,0.9311110973358154,0.0010000000474974513
0.2167264223098755,0.9380000233650208,0.24302658438682556,0.9311110973358154,0.0010000000474974513
0.21084360778331757,0.9399999976158142,0.2429705411195755,0.9311110973358154,0.0010000000474974513
0.21089115738868713,0.9380000233650208,0.24304109811782837,0.9311110973358154,0.0010000000474974513
0.21351085603237152,0.9440000057220459,0.24298535287380219,0.9311110973358154,0.0010000000474974513
0.2169717401266098,0.9359999895095825,0.2429179698228836,0.9311110973358154,0.0010000000474974513
0.2116527408361435,0.9380000233650208,0.24284125864505768,0.9311110973358154,0.0010000000474974513
0.20628252625465393,0.9359999895095825,0.2428957223892212,0.9311110973358154,0.0010000000474974513
0.21262815594673157,0.9380000233650208,0.2428826242685318,0.9311110973358154,0.0010000000474974513
0.20957666635513306,0.9380000233650208,0.2429022639989853,0.9311110973358154,0.0010000000474974513
0.2156682014465332,0.9419999718666077,0.2428528368473053,0.9311110973358154,0.0010000000474974513
0.2240729033946991,0.9380000233650208,0.24282066524028778,0.9313333630561829,0.0010000000474974513
0.22459325194358826,0.9399999976158142,0.2427915632724762,0.9313333630561829,0.0010000000474974513
0.22575414180755615,0.9399999976158142,0.2426975667476654,0.9313333630561829,0.0010000000474974513
0.21911568939685822,0.9359999895095825,0.24270325899124146,0.9313333630561829,0.0010000000474974513
0.21081960201263428,0.9399999976158142,0.2426133155822754,0.9315555691719055,0.0010000000474974513
0.20891964435577393,0.9419999718666077,0.24256756901741028,0.9315555691719055,0.0010000000474974513
0.20983684062957764,0.9399999976158142,0.2425869107246399,0.9315555691719055,0.0010000000474974513
0.21860551834106445,0.9359999895095825,0.2424749881029129,0.9315555691719055,0.0010000000474974513
0.2247934490442276,0.9380000233650208,0.24232028424739838,0.9315555691719055,0.0010000000474974513
0.22492721676826477,0.9300000071525574,0.2422175258398056,0.9315555691719055,0.0010000000474974513
0.20448946952819824,0.9399999976158142,0.2421545386314392,0.9315555691719055,0.0010000000474974513
0.20465607941150665,0.9359999895095825,0.24207885563373566,0.9317777752876282,0.0010000000474974513
0.2026774287223816,0.9359999895095825,0.24206556379795074,0.9317777752876282,0.0010000000474974513
0.22702191770076752,0.9380000233650208,0.24202482402324677,0.9317777752876282,0.0010000000474974513
0.2123444825410843,0.9399999976158142,0.24189244210720062,0.9317777752876282,0.0010000000474974513
0.2231866866350174,0.9340000152587891,0.24191178381443024,0.9317777752876282,0.0010000000474974513
0.22941699624061584,0.9359999895095825,0.24185584485530853,0.9317777752876282,0.0010000000474974513
0.2135452926158905,0.9359999895095825,0.24177338182926178,0.9317777752876282,0.0010000000474974513
0.19950507581233978,0.9419999718666077,0.24171055853366852,0.9317777752876282,0.0010000000474974513
0.21331074833869934,0.9399999976158142,0.24169686436653137,0.9317777752876282,0.0010000000474974513
0.21662265062332153,0.9359999895095825,0.24165676534175873,0.9317777752876282,0.0010000000474974513
0.2098521888256073,0.9419999718666077,0.24157218635082245,0.9317777752876282,0.0010000000474974513
0.2227087914943695,0.9380000233650208,0.24155525863170624,0.9317777752876282,0.0010000000474974513
0.2116064429283142,0.9359999895095825,0.24148420989513397,0.9319999814033508,0.0010000000474974513
0.22058062255382538,0.9380000233650208,0.2414228767156601,0.9319999814033508,0.0010000000474974513
0.20710107684135437,0.9380000233650208,0.24133653938770294,0.9322222471237183,0.0010000000474974513
0.2142903208732605,0.9419999718666077,0.24128390848636627,0.9322222471237183,0.0010000000474974513
0.2108452171087265,0.9380000233650208,0.24121500551700592,0.9322222471237183,0.0010000000474974513
0.21019944548606873,0.9359999895095825,0.24118337035179138,0.9322222471237183,0.0010000000474974513
0.22465117275714874,0.9319999814033508,0.24118492007255554,0.9322222471237183,0.0010000000474974513
0.21982653439044952,0.9340000152587891,0.24116766452789307,0.9322222471237183,0.0010000000474974513
0.2138345092535019,0.9380000233650208,0.2411668598651886,0.9322222471237183,0.0010000000474974513
0.2124471366405487,0.9399999976158142,0.24115701019763947,0.9324444532394409,0.0010000000474974513
0.22082725167274475,0.9380000233650208,0.24116075038909912,0.9324444532394409,0.0010000000474974513
0.2050374448299408,0.9399999976158142,0.241169273853302,0.9324444532394409,0.0010000000474974513
0.20931147038936615,0.9399999976158142,0.24118269979953766,0.9324444532394409,0.0010000000474974513
0.2092912197113037,0.9359999895095825,0.24119333922863007,0.9324444532394409,0.0010000000474974513
0.21326981484889984,0.9399999976158142,0.24112097918987274,0.9324444532394409,0.0010000000474974513
0.1985606998205185,0.9359999895095825,0.2410789430141449,0.9324444532394409,0.0010000000474974513
0.21489745378494263,0.9419999718666077,0.241058349609375,0.9324444532394409,0.0010000000474974513
0.20409689843654633,0.9380000233650208,0.2410382777452469,0.9324444532394409,0.0010000000474974513
0.19604066014289856,0.9440000057220459,0.24106748402118683,0.9324444532394409,0.0010000000474974513
0.20472946763038635,0.9440000057220459,0.24105525016784668,0.9324444532394409,0.0010000000474974513
0.21948975324630737,0.9340000152587891,0.24100452661514282,0.9324444532394409,0.0010000000474974513
0.22076979279518127,0.9399999976158142,0.2409658133983612,0.9324444532394409,0.0010000000474974513
0.19654418528079987,0.9399999976158142,0.2409658133983612,0.9324444532394409,0.0010000000474974513
0.20975099503993988,0.9359999895095825,0.24097175896167755,0.9324444532394409,0.0010000000474974513
0.20718206465244293,0.9399999976158142,0.2409028857946396,0.9324444532394409,0.0010000000474974513
0.21618841588497162,0.9399999976158142,0.24089021980762482,0.9324444532394409,0.0010000000474974513
0.2116551697254181,0.9419999718666077,0.24079836905002594,0.9324444532394409,0.0010000000474974513
0.21083369851112366,0.9340000152587891,0.24076752364635468,0.9324444532394409,0.0010000000474974513
0.21773678064346313,0.9380000233650208,0.24061813950538635,0.9324444532394409,0.0010000000474974513
0.2239089161157608,0.9359999895095825,0.24060475826263428,0.9324444532394409,0.0010000000474974513
0.20784436166286469,0.9399999976158142,0.24055911600589752,0.9324444532394409,0.0010000000474974513
0.19368183612823486,0.9399999976158142,0.24055816233158112,0.9326666593551636,0.0010000000474974513
0.21428658068180084,0.9380000233650208,0.2404843419790268,0.9326666593551636,0.0010000000474974513
0.2101256102323532,0.9380000233650208,0.2404511421918869,0.9326666593551636,0.0010000000474974513
0.20256607234477997,0.9459999799728394,0.2403590828180313,0.9326666593551636,0.0010000000474974513
0.19437333941459656,0.9340000152587891,0.24033181369304657,0.9326666593551636,0.0010000000474974513
0.20242808759212494,0.9419999718666077,0.24028638005256653,0.9326666593551636,0.0010000000474974513
0.21200494468212128,0.9340000152587891,0.24031098186969757,0.9326666593551636,0.0010000000474974513
0.2048807442188263,0.9419999718666077,0.24028900265693665,0.9326666593551636,0.0010000000474974513
0.21334685385227203,0.9399999976158142,0.24030707776546478,0.9326666593551636,0.0010000000474974513
0.20467130839824677,0.9319999814033508,0.24024514853954315,0.9326666593551636,0.0010000000474974513
0.2089475691318512,0.9340000152587891,0.24013786017894745,0.9326666593551636,0.0010000000474974513
0.21563221514225006,0.9459999799728394,0.2401207685470581,0.9326666593551636,0.0010000000474974513
0.20370936393737793,0.9419999718666077,0.24010872840881348,0.9326666593551636,0.0010000000474974513
0.21318206191062927,0.9359999895095825,0.24003304541110992,0.9326666593551636,0.0010000000474974513
0.1958448439836502,0.9399999976158142,0.2400658130645752,0.9326666593551636,0.0010000000474974513
0.20679974555969238,0.9359999895095825,0.24000707268714905,0.9326666593551636,0.0010000000474974513
0.20610900223255157,0.9419999718666077,0.24001917243003845,0.9326666593551636,0.0010000000474974513
0.2104787528514862,0.9419999718666077,0.2400459498167038,0.9326666593551636,0.0010000000474974513
0.222732812166214,0.9380000233650208,0.240007221698761,0.9326666593551636,0.0010000000474974513
0.20052476227283478,0.9419999718666077,0.24002839624881744,0.9326666593551636,0.0010000000474974513
0.21298474073410034,0.9340000152587891,0.23998087644577026,0.9328888654708862,0.0010000000474974513
0.21167083084583282,0.9359999895095825,0.2399316132068634,0.9328888654708862,0.0010000000474974513
0.20594438910484314,0.9380000233650208,0.23993495106697083,0.9328888654708862,0.0010000000474974513
0.2033994346857071,0.9359999895095825,0.23993362486362457,0.9328888654708862,0.0010000000474974513
0.19971951842308044,0.9340000152587891,0.23990948498249054,0.9328888654708862,0.0010000000474974513
0.21576713025569916,0.9319999814033508,0.239946648478508,0.9328888654708862,0.0010000000474974513
0.21517112851142883,0.9340000152587891,0.23995789885520935,0.9328888654708862,0.0010000000474974513
0.20099325478076935,0.9399999976158142,0.2399664968252182,0.9328888654708862,0.0010000000474974513
0.21349209547042847,0.9359999895095825,0.23989154398441315,0.9328888654708862,0.0010000000474974513
0.19640274345874786,0.9419999718666077,0.2398688942193985,0.9328888654708862,0.0010000000474974513
0.21614131331443787,0.9399999976158142,0.23984195291996002,0.9328888654708862,0.0010000000474974513
0.21383175253868103,0.9419999718666077,0.2398194968700409,0.9328888654708862,0.0010000000474974513
0.20639216899871826,0.9399999976158142,0.23977471888065338,0.9328888654708862,0.0010000000474974513
0.21005523204803467,0.9319999814033508,0.23970575630664825,0.9328888654708862,0.0010000000474974513
0.20546337962150574,0.9380000233650208,0.2396058738231659,0.9328888654708862,0.0010000000474974513
0.2115495651960373,0.9380000233650208,0.23960444331169128,0.9328888654708862,0.0010000000474974513
0.20778682827949524,0.9419999718666077,0.2395527958869934,0.9328888654708862,0.0010000000474974513
0.20202435553073883,0.9380000233650208,0.2395855337381363,0.9328888654708862,0.0010000000474974513
0.19727644324302673,0.9380000233650208,0.23957756161689758,0.9328888654708862,0.0010000000474974513
0.21825668215751648,0.9380000233650208,0.23962047696113586,0.9328888654708862,0.0010000000474974513
0.1987399309873581,0.9380000233650208,0.2395809441804886,0.9328888654708862,0.0010000000474974513
0.20749738812446594,0.9399999976158142,0.23953065276145935,0.9328888654708862,0.0010000000474974513
0.2017340362071991,0.9380000233650208,0.23950955271720886,0.9328888654708862,0.0010000000474974513
0.20534153282642365,0.9419999718666077,0.23942792415618896,0.9328888654708862,0.0010000000474974513
0.21046333014965057,0.9419999718666077,0.23937435448169708,0.9328888654708862,0.0010000000474974513
0.21062767505645752,0.9399999976158142,0.23933151364326477,0.9328888654708862,0.0010000000474974513
0.22277285158634186,0.9319999814033508,0.23926961421966553,0.9328888654708862,0.0010000000474974513
0.20437762141227722,0.9399999976158142,0.2391994297504425,0.9328888654708862,0.0010000000474974513
0.2157125174999237,0.9340000152587891,0.23912717401981354,0.9328888654708862,0.0010000000474974513
0.22369486093521118,0.9399999976158142,0.23911646008491516,0.9328888654708862,0.0010000000474974513
0.19544583559036255,0.9419999718666077,0.2390999048948288,0.9328888654708862,0.0010000000474974513
0.20495490729808807,0.9399999976158142,0.23902878165245056,0.9328888654708862,0.0010000000474974513
0.20361582934856415,0.9359999895095825,0.23890221118927002,0.9328888654708862,0.0010000000474974513
0.20520704984664917,0.9359999895095825,0.2388259321451187,0.9328888654708862,0.0010000000474974513
0.19995754957199097,0.9419999718666077,0.23874859511852264,0.9328888654708862,0.0010000000474974513
0.20815671980381012,0.9359999895095825,0.23874424397945404,0.9328888654708862,0.0010000000474974513
0.19171276688575745,0.9419999718666077,0.23870736360549927,0.9328888654708862,0.0010000000474974513
0.20234011113643646,0.9380000233650208,0.23864857852458954,0.9328888654708862,0.0010000000474974513
0.20341147482395172,0.9419999718666077,0.23858259618282318,0.9328888654708862,0.0010000000474974513
0.21523357927799225,0.9359999895095825,0.23857644200325012,0.9328888654708862,0.0010000000474974513
0.20966733992099762,0.9380000233650208,0.23846544325351715,0.9328888654708862,0.0010000000474974513
0.19954544305801392,0.9380000233650208,0.23849979043006897,0.9328888654708862,0.0010000000474974513
0.2007460743188858,0.9399999976158142,0.23845869302749634,0.9328888654708862,0.0010000000474974513
0.1930849254131317,0.9380000233650208,0.2384539395570755,0.9331111311912537,0.0010000000474974513
0.20080582797527313,0.9419999718666077,0.238382950425148,0.9328888654708862,0.0010000000474974513
0.20605416595935822,0.9440000057220459,0.23837274312973022,0.9331111311912537,0.0010000000474974513
0.20770859718322754,0.9440000057220459,0.23836684226989746,0.9331111311912537,0.0010000000474974513
0.20621798932552338,0.9380000233650208,0.2383490651845932,0.9331111311912537,0.0010000000474974513
0.22300134599208832,0.9459999799728394,0.2383561134338379,0.9331111311912537,0.0010000000474974513
0.19672837853431702,0.9399999976158142,0.23838761448860168,0.9331111311912537,0.0010000000474974513
0.201589435338974,0.9419999718666077,0.23830319941043854,0.9331111311912537,0.0010000000474974513
0.20532451570034027,0.9419999718666077,0.23831067979335785,0.9331111311912537,0.0010000000474974513
0.19306890666484833,0.9440000057220459,0.23833544552326202,0.9331111311912537,0.0010000000474974513
0.1969238668680191,0.9399999976158142,0.23837515711784363,0.9331111311912537,0.0010000000474974513
0.21026402711868286,0.9380000233650208,0.23832833766937256,0.9331111311912537,0.0010000000474974513
0.2186460793018341,0.9380000233650208,0.2383396327495575,0.9331111311912537,0.0010000000474974513
0.20567573606967926,0.9380000233650208,0.2383291870355606,0.9331111311912537,0.0010000000474974513
0.18813587725162506,0.9459999799728394,0.2382349669933319,0.9331111311912537,0.0010000000474974513
0.19240060448646545,0.9359999895095825,0.2382316142320633,0.9331111311912537,0.0010000000474974513
0.20494696497917175,0.9399999976158142,0.2381962388753891,0.9331111311912537,0.0010000000474974513
0.2038183957338333,0.9359999895095825,0.23811914026737213,0.9331111311912537,0.0010000000474974513
0.20329897105693817,0.9440000057220459,0.2381048947572708,0.9331111311912537,0.0010000000474974513
0.1965237855911255,0.9459999799728394,0.23804110288619995,0.9331111311912537,0.0010000000474974513
0.21793028712272644,0.9399999976158142,0.2379879504442215,0.9331111311912537,0.0010000000474974513
0.1963781863451004,0.9399999976158142,0.2379077672958374,0.9331111311912537,0.0010000000474974513
0.21831808984279633,0.9319999814033508,0.23788875341415405,0.9331111311912537,0.0010000000474974513
0.2081603854894638,0.9359999895095825,0.23785601556301117,0.9331111311912537,0.0010000000474974513
0.19804081320762634,0.9440000057220459,0.23787841200828552,0.9331111311912537,0.0010000000474974513
0.20231510698795319,0.9440000057220459,0.23784741759300232,0.9331111311912537,0.0010000000474974513
0.19127345085144043,0.9459999799728394,0.23776377737522125,0.9331111311912537,0.0010000000474974513
0.1958010494709015,0.9440000057220459,0.237760528922081,0.9331111311912537,0.0010000000474974513
0.19846025109291077,0.9440000057220459,0.2377719134092331,0.9331111311912537,0.0010000000474974513
0.19886437058448792,0.9440000057220459,0.23771099746227264,0.9331111311912537,0.0010000000474974513
0.19822140038013458,0.9359999895095825,0.23764756321907043,0.9331111311912537,0.0010000000474974513
0.2128903865814209,0.9380000233650208,0.23773199319839478,0.9331111311912537,0.0010000000474974513
0.20542588829994202,0.9399999976158142,0.23772168159484863,0.9331111311912537,0.0010000000474974513
0.19735074043273926,0.9440000057220459,0.23770233988761902,0.9331111311912537,0.0010000000474974513
0.2066117376089096,0.9359999895095825,0.23771362006664276,0.9331111311912537,0.0010000000474974513
0.19937752187252045,0.9380000233650208,0.23764722049236298,0.9331111311912537,0.0010000000474974513
0.20359143614768982,0.9399999976158142,0.237618088722229,0.9331111311912537,0.0010000000474974513
0.18847081065177917,0.9380000233650208,0.2375136762857437,0.9333333373069763,0.0010000000474974513
0.2092362642288208,0.9380000233650208,0.2374771386384964,0.9333333373069763,0.0010000000474974513
0.20397362112998962,0.9359999895095825,0.23743055760860443,0.9333333373069763,0.0010000000474974513
0.19980090856552124,0.9380000233650208,0.23734304308891296,0.9333333373069763,0.0010000000474974513
0.20033521950244904,0.9459999799728394,0.23737214505672455,0.9333333373069763,0.0010000000474974513
0.1992717981338501,0.9380000233650208,0.2372846156358719,0.9333333373069763,0.0010000000474974513
0.19852325320243835,0.9419999718666077,0.23719702661037445,0.9333333373069763,0.0010000000474974513
0.2030772566795349,0.9419999718666077,0.23719525337219238,0.9333333373069763,0.0010000000474974513
0.1954685002565384,0.9419999718666077,0.23720651865005493,0.9333333373069763,0.0010000000474974513
0.19482357800006866,0.9440000057220459,0.23714128136634827,0.933555543422699,0.0010000000474974513
0.2090768665075302,0.9380000233650208,0.2371169924736023,0.933555543422699,0.0010000000474974513
0.2024035006761551,0.9399999976158142,0.23713593184947968,0.933555543422699,0.0010000000474974513
0.19736334681510925,0.9440000057220459,0.23715081810951233,0.933555543422699,0.0010000000474974513
0.18900425732135773,0.9399999976158142,0.23710674047470093,0.9337777495384216,0.0010000000474974513
0.20134654641151428,0.9419999718666077,0.23708957433700562,0.9337777495384216,0.0010000000474974513
0.20224525034427643,0.9340000152587891,0.23710402846336365,0.9337777495384216,0.0010000000474974513
0.20789834856987,0.9399999976158142,0.23707890510559082,0.9340000152587891,0.0010000000474974513
0.21055267751216888,0.9399999976158142,0.2370760142803192,0.9340000152587891,0.0010000000474974513
0.20776322484016418,0.9359999895095825,0.23700398206710815,0.9340000152587891,0.0010000000474974513
0.19635221362113953,0.9440000057220459,0.23695605993270874,0.9340000152587891,0.0010000000474974513
0.20450839400291443,0.9399999976158142,0.23697127401828766,0.9340000152587891,0.0010000000474974513
0.20360945165157318,0.9419999718666077,0.23698191344738007,0.9340000152587891,0.0010000000474974513
0.20977166295051575,0.9419999718666077,0.23690484464168549,0.9340000152587891,0.0010000000474974513
0.19984197616577148,0.9340000152587891,0.23690210282802582,0.9340000152587891,0.0010000000474974513
0.20129193365573883,0.9440000057220459,0.23682932555675507,0.9340000152587891,0.0010000000474974513
0.20196400582790375,0.9399999976158142,0.23682473599910736,0.9340000152587891,0.0010000000474974513
0.190984308719635,0.9440000057220459,0.23678773641586304,0.9340000152587891,0.0010000000474974513
0.20221278071403503,0.9399999976158142,0.23671980202198029,0.9340000152587891,0.0010000000474974513
0.18673783540725708,0.9480000138282776,0.23670527338981628,0.9340000152587891,0.0010000000474974513
0.18477711081504822,0.9440000057220459,0.23666778206825256,0.9340000152587891,0.0010000000474974513
0.192764550447464,0.9459999799728394,0.23673021793365479,0.9340000152587891,0.0010000000474974513
0.2133042812347412,0.9419999718666077,0.23669520020484924,0.9340000152587891,0.0010000000474974513
0.2034609168767929,0.9399999976158142,0.2365858554840088,0.9340000152587891,0.0010000000474974513
0.19583235681056976,0.9359999895095825,0.23660525679588318,0.9340000152587891,0.0010000000474974513
0.1999608725309372,0.9419999718666077,0.23663747310638428,0.9340000152587891,0.0010000000474974513
0.19035637378692627,0.9480000138282776,0.23664048314094543,0.9340000152587891,0.0010000000474974513
0.1965387612581253,0.9380000233650208,0.23652680218219757,0.9340000152587891,0.0010000000474974513
0.21273303031921387,0.9419999718666077,0.2364913523197174,0.9340000152587891,0.0010000000474974513
0.22088053822517395,0.9419999718666077,0.2364369034767151,0.9340000152587891,0.0010000000474974513
0.2072187215089798,0.9419999718666077,0.2363995462656021,0.9340000152587891,0.0010000000474974513
0.18677978217601776,0.9440000057220459,0.23637063801288605,0.9340000152587891,0.0010000000474974513
0.19058585166931152,0.9440000057220459,0.2363622784614563,0.9340000152587891,0.0010000000474974513
0.2068958878517151,0.9419999718666077,0.23636753857135773,0.9340000152587891,0.0010000000474974513
0.17939777672290802,0.9480000138282776,0.23632937669754028,0.9342222213745117,0.0010000000474974513
0.18679898977279663,0.9459999799728394,0.2363492250442505,0.9340000152587891,0.0010000000474974513
0.18714696168899536,0.9419999718666077,0.23626576364040375,0.9342222213745117,0.0010000000474974513
0.1964656263589859,0.9480000138282776,0.23618240654468536,0.9342222213745117,0.0010000000474974513
0.19374024868011475,0.9459999799728394,0.23613867163658142,0.9342222213745117,0.0010000000474974513
0.206542506814003,0.9380000233650208,0.23607362806797028,0.9342222213745117,0.0010000000474974513
0.20595109462738037,0.9340000152587891,0.23604705929756165,0.9342222213745117,0.0010000000474974513
0.1980442851781845,0.9459999799728394,0.235994353890419,0.9342222213745117,0.0010000000474974513
0.2069043517112732,0.9399999976158142,0.23591940104961395,0.9342222213745117,0.0010000000474974513
0.19244182109832764,0.9440000057220459,0.23589323461055756,0.9344444274902344,0.0010000000474974513
0.19899144768714905,0.9459999799728394,0.23589582741260529,0.9344444274902344,0.0010000000474974513
0.1987961381673813,0.9440000057220459,0.23585473001003265,0.9346666932106018,0.0010000000474974513
0.2077416330575943,0.9340000152587891,0.2358538955450058,0.9346666932106018,0.0010000000474974513
0.20501260459423065,0.9459999799728394,0.2358161360025406,0.9346666932106018,0.0010000000474974513
0.190252423286438,0.9440000057220459,0.2357744723558426,0.9346666932106018,0.0010000000474974513
0.1957269012928009,0.9419999718666077,0.235738605260849,0.9346666932106018,0.0010000000474974513
0.19274301826953888,0.9459999799728394,0.2356763482093811,0.9346666932106018,0.0010000000474974513
0.19497282803058624,0.9399999976158142,0.23565201461315155,0.9346666932106018,0.0010000000474974513
0.20467878878116608,0.9440000057220459,0.23562519252300262,0.9346666932106018,0.0010000000474974513
0.19728636741638184,0.9419999718666077,0.23553667962551117,0.9346666932106018,0.0010000000474974513
0.20129746198654175,0.9440000057220459,0.2355353981256485,0.9346666932106018,0.0010000000474974513
0.2090425193309784,0.9380000233650208,0.2355455756187439,0.9346666932106018,0.0010000000474974513
0.20109662413597107,0.9419999718666077,0.23555272817611694,0.9346666932106018,0.0010000000474974513
0.19350452721118927,0.9459999799728394,0.2354632169008255,0.9348888993263245,0.0010000000474974513
0.2060849517583847,0.9399999976158142,0.2354372888803482,0.9348888993263245,0.0010000000474974513
0.1999633014202118,0.9419999718666077,0.23544341325759888,0.9348888993263245,0.0010000000474974513
0.1912752389907837,0.9440000057220459,0.23543928563594818,0.9348888993263245,0.0010000000474974513
0.21049822866916656,0.9440000057220459,0.23535975813865662,0.9348888993263245,0.0010000000474974513
0.20589540898799896,0.9419999718666077,0.23537562787532806,0.9348888993263245,0.0010000000474974513
0.2023266702890396,0.9380000233650208,0.23533295094966888,0.9348888993263245,0.0010000000474974513
0.1954406350851059,0.9419999718666077,0.23534663021564484,0.9348888993263245,0.0010000000474974513
0.19924721121788025,0.9380000233650208,0.23529790341854095,0.9348888993263245,0.0010000000474974513
0.18379248678684235,0.9459999799728394,0.23525677621364594,0.9348888993263245,0.0010000000474974513
0.19028322398662567,0.9440000057220459,0.23513631522655487,0.9351111054420471,0.0010000000474974513
0.19134224951267242,0.9399999976158142,0.2351004183292389,0.9351111054420471,0.0010000000474974513
0.18940813839435577,0.9399999976158142,0.23505458235740662,0.9351111054420471,0.0010000000474974513
0.203717440366745,0.9380000233650208,0.23499058187007904,0.9351111054420471,0.0010000000474974513
0.19008681178092957,0.9459999799728394,0.2349856197834015,0.9348888993263245,0.0010000000474974513
0.20189644396305084,0.9419999718666077,0.2349267601966858,0.9348888993263245,0.0010000000474974513
0.19152452051639557,0.9399999976158142,0.23493662476539612,0.9348888993263245,0.0010000000474974513
0.18994125723838806,0.9419999718666077,0.2349294126033783,0.9348888993263245,0.0010000000474974513
0.1949225515127182,0.9419999718666077,0.2349119782447815,0.9348888993263245,0.0010000000474974513
0.19977782666683197,0.9399999976158142,0.23492296040058136,0.9348888993263245,0.0010000000474974513
0.19626770913600922,0.9399999976158142,0.2349478304386139,0.9348888993263245,0.0010000000474974513
0.20166581869125366,0.9419999718666077,0.23488245904445648,0.9348888993263245,0.0010000000474974513
0.19488273561000824,0.9440000057220459,0.23478581011295319,0.9348888993263245,0.0010000000474974513
0.18199922144412994,0.9399999976158142,0.2347414791584015,0.9348888993263245,0.0010000000474974513
0.2037636935710907,0.9380000233650208,0.2347116768360138,0.9348888993263245,0.0010000000474974513
0.21374668180942535,0.9419999718666077,0.2347203493118286,0.9348888993263245,0.0010000000474974513
0.19623026251792908,0.9380000233650208,0.23470880091190338,0.9348888993263245,0.0010000000474974513
0.2043265700340271,0.9359999895095825,0.2346450686454773,0.9348888993263245,0.0010000000474974513
0.19586114585399628,0.9399999976158142,0.23460647463798523,0.9351111054420471,0.0010000000474974513
0.20376217365264893,0.9459999799728394,0.23455552756786346,0.9351111054420471,0.0010000000474974513
0.20174157619476318,0.9380000233650208,0.23452256619930267,0.9351111054420471,0.0010000000474974513
0.19074329733848572,0.9459999799728394,0.23446308076381683,0.9351111054420471,0.0010000000474974513
0.19520457088947296,0.9419999718666077,0.2345033884048462,0.9351111054420471,0.0010000000474974513
0.20452933013439178,0.9399999976158142,0.2345421314239502,0.9351111054420471,0.0010000000474974513
0.20237037539482117,0.9399999976158142,0.23449353873729706,0.9351111054420471,0.0010000000474974513
0.1962275207042694,0.9419999718666077,0.2345144897699356,0.9351111054420471,0.0010000000474974513
0.21386973559856415,0.9440000057220459,0.2345477193593979,0.9351111054420471,0.0010000000474974513
0.20943576097488403,0.9419999718666077,0.23447613418102264,0.9351111054420471,0.0010000000474974513
0.18916361033916473,0.9399999976158142,0.23442919552326202,0.9351111054420471,0.0010000000474974513
0.1965295672416687,0.9399999976158142,0.23441705107688904,0.9351111054420471,0.0010000000474974513
0.18385298550128937,0.9399999976158142,0.23437649011611938,0.9351111054420471,0.0010000000474974513
0.19466301798820496,0.9440000057220459,0.23434501886367798,0.9348888993263245,0.0010000000474974513
0.20251032710075378,0.9399999976158142,0.23432616889476776,0.9348888993263245,0.0010000000474974513
0.19867296516895294,0.9380000233650208,0.2343122810125351,0.9348888993263245,0.0010000000474974513
0.1892702877521515,0.9520000219345093,0.2343476265668869,0.9348888993263245,0.0010000000474974513
0.18387901782989502,0.9419999718666077,0.2343653440475464,0.9348888993263245,0.0010000000474974513
0.1833709180355072,0.9419999718666077,0.23439504206180573,0.9348888993263245,0.0010000000474974513
0.20417770743370056,0.9440000057220459,0.23442116379737854,0.9348888993263245,0.0010000000474974513
0.20002204179763794,0.9480000138282776,0.2343914657831192,0.9348888993263245,0.0010000000474974513
0.19055980443954468,0.9419999718666077,0.2343076914548874,0.9348888993263245,0.0010000000474974513
0.20063747465610504,0.9359999895095825,0.23425854742527008,0.9348888993263245,0.0010000000474974513
0.18933120369911194,0.9480000138282776,0.2342657893896103,0.9348888993263245,0.0010000000474974513
0.18851196765899658,0.9399999976158142,0.2342551052570343,0.9348888993263245,0.0010000000474974513
0.20194236934185028,0.9380000233650208,0.23422445356845856,0.9348888993263245,0.0010000000474974513
0.19377392530441284,0.9440000057220459,0.2342611700296402,0.9348888993263245,0.0010000000474974513
0.19872650504112244,0.9380000233650208,0.2342153638601303,0.9348888993263245,0.0010000000474974513
0.18590164184570312,0.9459999799728394,0.23410159349441528,0.9348888993263245,0.0010000000474974513
0.19206544756889343,0.9359999895095825,0.234110489487648,0.9348888993263245,0.0010000000474974513
0.1914304941892624,0.9480000138282776,0.23409654200077057,0.9348888993263245,0.0010000000474974513
0.1893191784620285,0.9419999718666077,0.23403742909431458,0.9348888993263245,0.0010000000474974513
0.18474969267845154,0.9480000138282776,0.23407326638698578,0.9348888993263245,0.0010000000474974513
0.19603531062602997,0.9380000233650208,0.23401430249214172,0.9348888993263245,0.0010000000474974513
0.19234712421894073,0.949999988079071,0.2339971512556076,0.9348888993263245,0.0010000000474974513
0.19390760362148285,0.9459999799728394,0.23394206166267395,0.9348888993263245,0.0010000000474974513
0.19285078346729279,0.9380000233650208,0.2338990867137909,0.9348888993263245,0.0010000000474974513
0.18716809153556824,0.9459999799728394,0.23391009867191315,0.9348888993263245,0.0010000000474974513
0.20422416925430298,0.9440000057220459,0.23386532068252563,0.9348888993263245,0.0010000000474974513
0.19542449712753296,0.9419999718666077,0.23380547761917114,0.9348888993263245,0.0010000000474974513
0.19944722950458527,0.9440000057220459,0.23376695811748505,0.9348888993263245,0.0010000000474974513
0.19919249415397644,0.9459999799728394,0.23369553685188293,0.9348888993263245,0.0010000000474974513
0.188288614153862,0.9419999718666077,0.2336060106754303,0.9348888993263245,0.0010000000474974513
0.19667024910449982,0.9419999718666077,0.23355276882648468,0.9348888993263245,0.0010000000474974513
0.18930186331272125,0.9419999718666077,0.23358511924743652,0.9348888993263245,0.0010000000474974513
0.18773487210273743,0.9440000057220459,0.23353981971740723,0.9351111054420471,0.0010000000474974513
0.1969233900308609,0.9459999799728394,0.23353667557239532,0.9351111054420471,0.0010000000474974513
0.1961096078157425,0.9399999976158142,0.23350659012794495,0.9351111054420471,0.0010000000474974513
0.18954257667064667,0.9459999799728394,0.23351575434207916,0.9351111054420471,0.0010000000474974513
0.17869870364665985,0.9440000057220459,0.2335294932126999,0.9351111054420471,0.0010000000474974513
0.1985335648059845,0.9459999799728394,0.23349937796592712,0.9351111054420471,0.0010000000474974513
0.1875106245279312,0.9440000057220459,0.23348546028137207,0.9351111054420471,0.0010000000474974513
0.2054201066493988,0.9459999799728394,0.23346631228923798,0.9351111054420471,0.0010000000474974513
0.20739257335662842,0.9399999976158142,0.2334286868572235,0.9351111054420471,0.0010000000474974513
0.1861622929573059,0.9380000233650208,0.23341256380081177,0.9353333115577698,0.0010000000474974513
0.18692205846309662,0.9399999976158142,0.23343142867088318,0.9353333115577698,0.0010000000474974513
0.19213448464870453,0.9480000138282776,0.23342689871788025,0.9353333115577698,0.0010000000474974513
0.19211697578430176,0.9399999976158142,0.23336206376552582,0.9353333115577698,0.0010000000474974513
0.18421883881092072,0.9459999799728394,0.23333974182605743,0.9353333115577698,0.0010000000474974513
0.19402942061424255,0.9440000057220459,0.23332400619983673,0.9353333115577698,0.0010000000474974513
0.1868876963853836,0.9419999718666077,0.2333213984966278,0.9353333115577698,0.0010000000474974513
0.19047027826309204,0.9380000233650208,0.23328545689582825,0.9353333115577698,0.0010000000474974513
0.18005125224590302,0.9440000057220459,0.23327012360095978,0.9353333115577698,0.0010000000474974513
0.205007404088974,0.9399999976158142,0.23324595391750336,0.9353333115577698,0.0010000000474974513
0.18740607798099518,0.9419999718666077,0.23316726088523865,0.9353333115577698,0.0010000000474974513
0.19181831181049347,0.9440000057220459,0.2331428825855255,0.9353333115577698,0.0010000000474974513
0.1947319060564041,0.9399999976158142,0.2331278771162033,0.9353333115577698,0.0010000000474974513
0.1859934777021408,0.9419999718666077,0.23313534259796143,0.9353333115577698,0.0010000000474974513
0.17780786752700806,0.9440000057220459,0.23317208886146545,0.9353333115577698,0.0010000000474974513
0.1915934681892395,0.9419999718666077,0.2331651747226715,0.9353333115577698,0.0010000000474974513
0.18993239104747772,0.9399999976158142,0.23306936025619507,0.9353333115577698,0.0010000000474974513
0.17939940094947815,0.9459999799728394,0.23305609822273254,0.9353333115577698,0.0010000000474974513
0.18815700709819794,0.9480000138282776,0.2330424040555954,0.9355555772781372,0.0010000000474974513
0.18755222856998444,0.949999988079071,0.23301087319850922,0.9355555772781372,0.0010000000474974513
0.18587520718574524,0.9459999799728394,0.23299406468868256,0.9355555772781372,0.0010000000474974513
0.1866259127855301,0.9399999976158142,0.2329898476600647,0.9355555772781372,0.0010000000474974513
0.2060474008321762,0.9399999976158142,0.23295962810516357,0.9355555772781372,0.0010000000474974513
0.19129393994808197,0.9419999718666077,0.23293907940387726,0.9355555772781372,0.0010000000474974513
0.19211362302303314,0.9419999718666077,0.23290660977363586,0.9357777833938599,0.0010000000474974513
0.192732036113739,0.9459999799728394,0.23295637965202332,0.9357777833938599,0.0010000000474974513
0.21299105882644653,0.9399999976158142,0.23299936950206757,0.9357777833938599,0.0010000000474974513
0.18094390630722046,0.9440000057220459,0.2329709678888321,0.9357777833938599,0.0010000000474974513
0.18124741315841675,0.9419999718666077,0.2328146994113922,0.9357777833938599,0.0010000000474974513
0.18778344988822937,0.9399999976158142,0.2328035533428192,0.9357777833938599,0.0010000000474974513
0.19281326234340668,0.9359999895095825,0.23281505703926086,0.9357777833938599,0.0010000000474974513
0.18409013748168945,0.9459999799728394,0.23283754289150238,0.9357777833938599,0.0010000000474974513
0.19437934458255768,0.9419999718666077,0.23284293711185455,0.9357777833938599,0.0010000000474974513
0.19860653579235077,0.9319999814033508,0.23277783393859863,0.9357777833938599,0.0010000000474974513
0.20189377665519714,0.9359999895095825,0.23273950815200806,0.9357777833938599,0.0010000000474974513
0.20146290957927704,0.9300000071525574,0.2327575385570526,0.9357777833938599,0.0010000000474974513
0.18806754052639008,0.9440000057220459,0.23268285393714905,0.9357777833938599,0.0010000000474974513
0.1923796683549881,0.9459999799728394,0.23265253007411957,0.9357777833938599,0.0010000000474974513
0.1983134001493454,0.9459999799728394,0.2326345145702362,0.9357777833938599,0.0010000000474974513
0.18472477793693542,0.9459999799728394,0.23261740803718567,0.9357777833938599,0.0010000000474974513
0.18466167151927948,0.949999988079071,0.23252880573272705,0.9357777833938599,0.0010000000474974513
0.1907716989517212,0.9440000057220459,0.23247572779655457,0.9357777833938599,0.0010000000474974513
0.18670561909675598,0.9440000057220459,0.23242399096488953,0.9359999895095825,0.0010000000474974513
0.19974753260612488,0.9480000138282776,0.2323760837316513,0.9359999895095825,0.0010000000474974513
0.1908116638660431,0.9459999799728394,0.23235636949539185,0.9359999895095825,0.0010000000474974513
0.18429912626743317,0.9440000057220459,0.23236393928527832,0.9359999895095825,0.0010000000474974513
0.19844964146614075,0.9399999976158142,0.23236843943595886,0.9357777833938599,0.0010000000474974513
0.18999937176704407,0.9419999718666077,0.23236973583698273,0.9357777833938599,0.0010000000474974513
0.19514530897140503,0.9480000138282776,0.23238123953342438,0.9357777833938599,0.0010000000474974513
0.18501383066177368,0.9440000057220459,0.23233669996261597,0.9359999895095825,0.0010000000474974513
0.19423949718475342,0.9419999718666077,0.23232519626617432,0.9359999895095825,0.0010000000474974513
0.1923549622297287,0.9440000057220459,0.23234960436820984,0.9357777833938599,0.0010000000474974513
0.1910524070262909,0.9399999976158142,0.2323475480079651,0.9362221956253052,0.0010000000474974513
0.19056284427642822,0.9419999718666077,0.23230984807014465,0.9362221956253052,0.0010000000474974513
0.1990603506565094,0.9440000057220459,0.2322826385498047,0.9362221956253052,0.0010000000474974513
0.19148236513137817,0.9419999718666077,0.23232248425483704,0.9362221956253052,0.0010000000474974513
0.19399015605449677,0.9399999976158142,0.23225334286689758,0.9362221956253052,0.0010000000474974513
0.18835565447807312,0.9419999718666077,0.23225681483745575,0.9362221956253052,0.0010000000474974513
0.1750391274690628,0.9520000219345093,0.2322230041027069,0.9362221956253052,0.0010000000474974513
0.1977643519639969,0.9459999799728394,0.23226337134838104,0.9362221956253052,0.0010000000474974513
0.1856294721364975,0.9399999976158142,0.23226435482501984,0.9362221956253052,0.0010000000474974513
0.1889413297176361,0.9459999799728394,0.23222236335277557,0.9364444613456726,0.0010000000474974513
0.1838332563638687,0.9440000057220459,0.23215799033641815,0.9364444613456726,0.0010000000474974513
0.1829240769147873,0.9459999799728394,0.2321106195449829,0.9364444613456726,0.0010000000474974513
0.1818748414516449,0.9380000233650208,0.23207207024097443,0.9364444613456726,0.0010000000474974513
0.19725050032138824,0.9440000057220459,0.23204882442951202,0.9364444613456726,0.0010000000474974513
0.17998850345611572,0.9419999718666077,0.23198533058166504,0.9366666674613953,0.0010000000474974513
0.19200444221496582,0.949999988079071,0.23191946744918823,0.9368888735771179,0.0010000000474974513
0.1856076568365097,0.9440000057220459,0.23192353546619415,0.9364444613456726,0.0010000000474974513
0.18123435974121094,0.9440000057220459,0.23190446197986603,0.9366666674613953,0.0010000000474974513
0.18682722747325897,0.9459999799728394,0.23198111355304718,0.9364444613456726,0.0010000000474974513
0.1962108016014099,0.9380000233650208,0.23206670582294464,0.9364444613456726,0.0010000000474974513
0.1982574313879013,0.9419999718666077,0.23205864429473877,0.9364444613456726,0.0010000000474974513
0.1892070472240448,0.9480000138282776,0.23213191330432892,0.9364444613456726,0.0010000000474974513
0.19553455710411072,0.9380000233650208,0.2321678102016449,0.9364444613456726,0.0010000000474974513
0.2068520337343216,0.9440000057220459,0.2320978194475174,0.9364444613456726,0.0010000000474974513
0.18244674801826477,0.949999988079071,0.23210126161575317,0.9364444613456726,0.0010000000474974513
0.18500031530857086,0.9440000057220459,0.2320067286491394,0.9366666674613953,0.0010000000474974513
0.17923305928707123,0.9480000138282776,0.23199696838855743,0.9366666674613953,0.0010000000474974513
0.1767406165599823,0.949999988079071,0.23200391232967377,0.9366666674613953,0.0010000000474974513
0.20023012161254883,0.9440000057220459,0.2319614738225937,0.9366666674613953,0.0010000000474974513
0.19317780435085297,0.9480000138282776,0.23194123804569244,0.9366666674613953,0.0010000000474974513
0.18928804993629456,0.9440000057220459,0.23198562860488892,0.9366666674613953,0.0010000000474974513
0.19212187826633453,0.9459999799728394,0.23196527361869812,0.9366666674613953,0.0010000000474974513
0.17215190827846527,0.9459999799728394,0.23194655776023865,0.9366666674613953,0.0010000000474974513
0.18473201990127563,0.9520000219345093,0.2319050282239914,0.9366666674613953,0.0010000000474974513
0.20114123821258545,0.9399999976158142,0.23195494711399078,0.9366666674613953,0.0010000000474974513
0.19703613221645355,0.9440000057220459,0.23190142214298248,0.9366666674613953,0.0010000000474974513
0.19458931684494019,0.9419999718666077,0.23178529739379883,0.9368888735771179,0.0010000000474974513
0.19224587082862854,0.9440000057220459,0.23178759217262268,0.9368888735771179,0.0010000000474974513
0.1981496512889862,0.9399999976158142,0.23176522552967072,0.9366666674613953,0.0010000000474974513
0.18881352245807648,0.9380000233650208,0.23173272609710693,0.9368888735771179,0.0010000000474974513
0.1864742636680603,0.9459999799728394,0.23170393705368042,0.9368888735771179,0.0010000000474974513
0.17635685205459595,0.949999988079071,0.23169450461864471,0.9368888735771179,0.0010000000474974513
0.18638746440410614,0.9419999718666077,0.2316211760044098,0.9368888735771179,0.0010000000474974513
0.17530933022499084,0.949999988079071,0.23166023194789886,0.9368888735771179,0.0010000000474974513
0.19549517333507538,0.9459999799728394,0.2316395342350006,0.9368888735771179,0.0010000000474974513
0.1900695264339447,0.9480000138282776,0.23161588609218597,0.9368888735771179,0.0010000000474974513
0.19613325595855713,0.9399999976158142,0.23162242770195007,0.9368888735771179,0.0010000000474974513
0.1853470802307129,0.949999988079071,0.23155507445335388,0.9368888735771179,0.0010000000474974513
0.17939461767673492,0.9459999799728394,0.231589674949646,0.9368888735771179,0.0010000000474974513
0.1784762591123581,0.9480000138282776,0.2314944714307785,0.9368888735771179,0.0010000000474974513
0.18745552003383636,0.9419999718666077,0.23144978284835815,0.9368888735771179,0.0010000000474974513
0.1863425225019455,0.9419999718666077,0.23143509030342102,0.9368888735771179,0.0010000000474974513
0.17708678543567657,0.949999988079071,0.23145374655723572,0.9368888735771179,0.0010000000474974513
0.18040579557418823,0.9480000138282776,0.2314571738243103,0.9368888735771179,0.0010000000474974513
0.17613215744495392,0.9480000138282776,0.231483593583107,0.9368888735771179,0.0010000000474974513
0.17901098728179932,0.9459999799728394,0.2314864844083786,0.9368888735771179,0.0010000000474974513
0.19576376676559448,0.9399999976158142,0.23150095343589783,0.9371111392974854,0.0010000000474974513
0.19089287519454956,0.949999988079071,0.2314174473285675,0.9371111392974854,0.0010000000474974513
0.1919138878583908,0.949999988079071,0.23143978416919708,0.9371111392974854,0.0010000000474974513
0.18361468613147736,0.9399999976158142,0.23139673471450806,0.9371111392974854,0.0010000000474974513
0.1933579295873642,0.9399999976158142,0.23134315013885498,0.9371111392974854,0.0010000000474974513
0.1814396232366562,0.9419999718666077,0.23125222325325012,0.9371111392974854,0.0010000000474974513
0.17465358972549438,0.949999988079071,0.23114849627017975,0.937333345413208,0.0010000000474974513
0.17767252027988434,0.9480000138282776,0.23114456236362457,0.937333345413208,0.0010000000474974513
0.18875378370285034,0.9459999799728394,0.23113419115543365,0.937333345413208,0.0010000000474974513
0.18750926852226257,0.9380000233650208,0.23111075162887573,0.937333345413208,0.0010000000474974513
0.18892835080623627,0.9440000057220459,0.23115505278110504,0.937333345413208,0.0010000000474974513
0.17923851311206818,0.9440000057220459,0.23116378486156464,0.9371111392974854,0.0010000000474974513
0.183833047747612,0.9520000219345093,0.23115505278110504,0.937333345413208,0.0010000000474974513
0.1883748471736908,0.9440000057220459,0.2311086654663086,0.937333345413208,0.0010000000474974513
0.1772657036781311,0.9539999961853027,0.23114241659641266,0.9371111392974854,0.0010000000474974513
0.19888271391391754,0.9359999895095825,0.23109202086925507,0.937333345413208,0.0010000000474974513
0.18941056728363037,0.9459999799728394,0.23110055923461914,0.937333345413208,0.0010000000474974513
0.18590354919433594,0.9419999718666077,0.23105986416339874,0.937333345413208,0.0010000000474974513
0.1638488918542862,0.9459999799728394,0.23104974627494812,0.937333345413208,0.0010000000474974513
0.1921585202217102,0.9459999799728394,0.23102226853370667,0.937333345413208,0.0010000000474974513
0.18693310022354126,0.9440000057220459,0.2310137003660202,0.937333345413208,0.0010000000474974513
0.1783115714788437,0.9480000138282776,0.23100830614566803,0.937333345413208,0.0010000000474974513
0.17964696884155273,0.9459999799728394,0.2310291826725006,0.9371111392974854,0.0010000000474974513
0.1780717968940735,0.949999988079071,0.23106002807617188,0.9371111392974854,0.0010000000474974513
0.17900949716567993,0.9459999799728394,0.23104147613048553,0.9371111392974854,0.0010000000474974513
0.18488456308841705,0.9480000138282776,0.23100467026233673,0.9371111392974854,0.0010000000474974513
0.18403951823711395,0.9480000138282776,0.2310299277305603,0.9371111392974854,0.0010000000474974513
0.1775660514831543,0.9399999976158142,0.23101307451725006,0.9371111392974854,0.0010000000474974513
0.19723090529441833,0.9440000057220459,0.23091748356819153,0.937333345413208,0.0010000000474974513
0.18556462228298187,0.9520000219345093,0.2308584749698639,0.9375555515289307,0.0010000000474974513
0.1839708834886551,0.9399999976158142,0.23085522651672363,0.9375555515289307,0.0010000000474974513
0.18805812299251556,0.9419999718666077,0.2308552861213684,0.937333345413208,0.0010000000474974513
0.1929723173379898,0.9440000057220459,0.23089613020420074,0.937333345413208,0.0010000000474974513
0.18812881410121918,0.9480000138282776,0.23080392181873322,0.9375555515289307,0.0010000000474974513
0.17164777219295502,0.949999988079071,0.2307663857936859,0.9375555515289307,0.0010000000474974513
0.18947291374206543,0.9380000233650208,0.2307894378900528,0.937333345413208,0.0010000000474974513
0.18154524266719818,0.9520000219345093,0.23075249791145325,0.9375555515289307,0.0010000000474974513
0.18795868754386902,0.9480000138282776,0.23070257902145386,0.9375555515289307,0.0010000000474974513
0.19180327653884888,0.9480000138282776,0.23067618906497955,0.9377777576446533,0.0010000000474974513
0.18372203409671783,0.9440000057220459,0.2306738793849945,0.9377777576446533,0.0010000000474974513
0.18828842043876648,0.9419999718666077,0.23068951070308685,0.9377777576446533,0.0010000000474974513
0.19728530943393707,0.9440000057220459,0.2306412011384964,0.9377777576446533,0.0010000000474974513
0.1888861209154129,0.9419999718666077,0.2305501103401184,0.9377777576446533,0.0010000000474974513
0.17029397189617157,0.9459999799728394,0.23058001697063446,0.9377777576446533,0.0010000000474974513
0.18342645466327667,0.9459999799728394,0.2306225597858429,0.9377777576446533,0.0010000000474974513
0.1750958114862442,0.9480000138282776,0.2306065857410431,0.9377777576446533,0.0010000000474974513
0.18099185824394226,0.9459999799728394,0.23057085275650024,0.9377777576446533,0.0010000000474974513
0.17972496151924133,0.9480000138282776,0.23056277632713318,0.9377777576446533,0.0010000000474974513
0.18653129041194916,0.9440000057220459,0.2305872142314911,0.9377777576446533,0.0010000000474974513
0.17211104929447174,0.9419999718666077,0.2306303232908249,0.9377777576446533,0.0010000000474974513
0.1771475225687027,0.9440000057220459,0.23062296211719513,0.9377777576446533,0.0010000000474974513
0.17893733084201813,0.9480000138282776,0.23060034215450287,0.9377777576446533,0.0010000000474974513
0.16073501110076904,0.9480000138282776,0.2305781990289688,0.9377777576446533,0.0010000000474974513
0.1935349553823471,0.9440000057220459,0.23059521615505219,0.9377777576446533,0.0010000000474974513
0.18133093416690826,0.9440000057220459,0.23050449788570404,0.9377777576446533,0.0010000000474974513
0.18384861946105957,0.9459999799728394,0.23044821619987488,0.9377777576446533,0.0010000000474974513
0.19155965745449066,0.9480000138282776,0.23032796382904053,0.9377777576446533,0.0010000000474974513
0.18053394556045532,0.9459999799728394,0.23038813471794128,0.9377777576446533,0.0010000000474974513
0.17703555524349213,0.9480000138282776,0.23035147786140442,0.9377777576446533,0.0010000000474974513
0.17046619951725006,0.9480000138282776,0.23035365343093872,0.9377777576446533,0.0010000000474974513
0.17800253629684448,0.9419999718666077,0.23036889731884003,0.9377777576446533,0.0010000000474974513
0.18132661283016205,0.9419999718666077,0.2303382158279419,0.9380000233650208,0.0010000000474974513
0.1797231137752533,0.9459999799728394,0.2303263396024704,0.9380000233650208,0.0010000000474974513
0.1674138307571411,0.9459999799728394,0.2303362637758255,0.9380000233650208,0.0010000000474974513
0.18039920926094055,0.949999988079071,0.2303645759820938,0.9380000233650208,0.0010000000474974513
0.17355655133724213,0.9459999799728394,0.23039032518863678,0.9380000233650208,0.0010000000474974513
0.1895986944437027,0.949999988079071,0.2303515076637268,0.9380000233650208,0.0010000000474974513
0.1821858435869217,0.9440000057220459,0.23029692471027374,0.9380000233650208,0.0010000000474974513
0.18732494115829468,0.9419999718666077,0.23032063245773315,0.9380000233650208,0.0010000000474974513
0.18623100221157074,0.9480000138282776,0.230287566781044,0.9380000233650208,0.0010000000474974513
0.18048539757728577,0.9459999799728394,0.23034703731536865,0.9380000233650208,0.0010000000474974513
0.18124589323997498,0.9419999718666077,0.23032739758491516,0.9380000233650208,0.0010000000474974513
0.18076999485492706,0.9480000138282776,0.23025837540626526,0.9380000233650208,0.0010000000474974513
0.20086407661437988,0.9440000057220459,0.23025664687156677,0.9380000233650208,0.0010000000474974513
0.1900414228439331,0.9419999718666077,0.23027046024799347,0.9380000233650208,0.0010000000474974513
0.17254875600337982,0.9459999799728394,0.23029400408267975,0.9380000233650208,0.0010000000474974513
0.1846545934677124,0.9480000138282776,0.23025767505168915,0.9380000233650208,0.0010000000474974513
0.18679280579090118,0.9459999799728394,0.2302703708410263,0.9380000233650208,0.0010000000474974513
0.18498030304908752,0.9399999976158142,0.23023255169391632,0.9380000233650208,0.0010000000474974513
0.19188180565834045,0.9380000233650208,0.23026137053966522,0.9380000233650208,0.0010000000474974513
0.1832348257303238,0.9440000057220459,0.2302497774362564,0.9380000233650208,0.0010000000474974513
0.18291684985160828,0.9459999799728394,0.23022563755512238,0.9380000233650208,0.0010000000474974513
0.18409660458564758,0.9419999718666077,0.23026977479457855,0.9380000233650208,0.0010000000474974513
0.18457961082458496,0.9480000138282776,0.23025479912757874,0.9380000233650208,0.0010000000474974513
0.18365246057510376,0.949999988079071,0.2302148938179016,0.9380000233650208,0.0010000000474974513
0.1867675632238388,0.9440000057220459,0.2301769256591797,0.9380000233650208,0.0010000000474974513
0.1829504370689392,0.949999988079071,0.23023343086242676,0.9380000233650208,0.0010000000474974513
0.17343670129776,0.9459999799728394,0.23022960126399994,0.9380000233650208,0.0010000000474974513
0.1729259043931961,0.9480000138282776,0.23018798232078552,0.9380000233650208,0.0010000000474974513
