loss,accuracy,val_loss,val_accuracy,lr
0.47922244668006897,0.871999979019165,0.9895495772361755,0.9097777605056763,0.0010000000474974513
0.21608437597751617,0.9399999976158142,0.6074901223182678,0.9128888845443726,0.0010000000474974513
0.17235104739665985,0.9480000138282776,0.4738556444644928,0.8955555558204651,0.0010000000474974513
0.1389739215373993,0.9580000042915344,0.49885857105255127,0.913777768611908,0.0010000000474974513
0.13388673961162567,0.9599999785423279,0.5021812319755554,0.8591111302375793,0.0010000000474974513
0.10310391336679459,0.9700000286102295,0.4667973220348358,0.9126666784286499,0.0010000000474974513
0.09587013721466064,0.972000002861023,0.6005908846855164,0.8784444332122803,0.0010000000474974513
0.09021773934364319,0.972000002861023,0.6027961373329163,0.871999979019165,0.0010000000474974513
0.0819442868232727,0.9800000190734863,0.6883786916732788,0.8399999737739563,0.0010000000474974513
0.08928859233856201,0.972000002861023,0.548839271068573,0.9286666512489319,0.0010000000474974513
0.09763742238283157,0.9700000286102295,0.7718491554260254,0.7044444680213928,0.0010000000474974513
0.07129784673452377,0.984000027179718,1.5996118783950806,0.2491111159324646,0.0010000000474974513
0.08711269497871399,0.972000002861023,0.7724645733833313,0.7551110982894897,0.0010000000474974513
0.07850085198879242,0.9819999933242798,0.8046950697898865,0.7893333435058594,0.0010000000474974513
0.06344921141862869,0.9819999933242798,0.7565333843231201,0.8257777690887451,0.0010000000474974513
0.07454833388328552,0.9760000109672546,0.8599604964256287,0.6582221984863281,0.0010000000474974513
0.05775121971964836,0.9819999933242798,0.8069120049476624,0.7788888812065125,0.0010000000474974513
0.061377495527267456,0.9800000190734863,0.9958769679069519,0.6168888807296753,0.0010000000474974513
0.05561840161681175,0.984000027179718,1.228666067123413,0.39088889956474304,0.0010000000474974513
0.06090183183550835,0.9860000014305115,0.7093424797058105,0.8240000009536743,0.0010000000474974513
0.08446183800697327,0.972000002861023,0.3687085509300232,0.902222216129303,0.0010000000474974513
0.07687006145715714,0.9779999852180481,0.2750728130340576,0.9324444532394409,0.0010000000474974513
0.06358505040407181,0.9819999933242798,0.35621869564056396,0.9097777605056763,0.0010000000474974513
0.05329642817378044,0.9860000014305115,0.3810553252696991,0.8737778067588806,0.0010000000474974513
0.054190684109926224,0.9860000014305115,0.43168580532073975,0.8453333377838135,0.0010000000474974513
0.03953515365719795,0.9940000176429749,0.34368154406547546,0.8864444494247437,0.0010000000474974513
0.041349008679389954,0.9900000095367432,0.37904098629951477,0.9088888764381409,0.0010000000474974513
0.053835730999708176,0.984000027179718,0.266769140958786,0.9251111149787903,0.0010000000474974513
0.036403439939022064,0.9879999756813049,0.33693718910217285,0.9197777509689331,0.0010000000474974513
0.03758569434285164,0.9900000095367432,0.41019609570503235,0.9011111259460449,0.0010000000474974513
0.040169112384319305,0.9860000014305115,0.46199890971183777,0.8846666812896729,0.0010000000474974513
0.04687589406967163,0.984000027179718,0.5566138625144958,0.7511110901832581,0.0010000000474974513
0.04331062361598015,0.9860000014305115,0.346114844083786,0.8704444169998169,0.0010000000474974513
0.04049256071448326,0.9900000095367432,0.26576200127601624,0.9288889169692993,0.0010000000474974513
0.03356713056564331,0.9900000095367432,0.4187529683113098,0.7935555577278137,0.0010000000474974513
0.027394922450184822,0.9919999837875366,0.45968136191368103,0.7806666493415833,0.0010000000474974513
0.0232210885733366,0.9919999837875366,0.4408741891384125,0.808222234249115,0.0010000000474974513
0.021497489884495735,0.9940000176429749,0.43738752603530884,0.8353333473205566,0.0010000000474974513
0.013280109502375126,0.9959999918937683,0.3155776560306549,0.8995555639266968,0.0010000000474974513
0.012565242126584053,0.9959999918937683,0.42725005745887756,0.8373333215713501,0.0010000000474974513
0.016485515981912613,0.9919999837875366,0.3311726450920105,0.8815555572509766,0.0010000000474974513
0.02073352411389351,0.9959999918937683,0.3151068389415741,0.903333306312561,0.0010000000474974513
0.028109809383749962,0.9879999756813049,0.4603734314441681,0.8288888931274414,0.0010000000474974513
0.07648492604494095,0.9739999771118164,0.9398685693740845,0.6800000071525574,0.0010000000474974513
0.10822702199220657,0.972000002861023,0.3900490999221802,0.941777765750885,0.0010000000474974513
0.07124295830726624,0.9819999933242798,0.5849213004112244,0.9202222228050232,0.0010000000474974513
0.07583994418382645,0.9779999852180481,0.49789974093437195,0.9062222242355347,0.0010000000474974513
0.04876510053873062,0.9900000095367432,0.5036284923553467,0.9084444642066956,0.0010000000474974513
0.06085309013724327,0.9819999933242798,0.6129292249679565,0.9046666622161865,0.0010000000474974513
0.04507492855191231,0.984000027179718,0.5338621735572815,0.9246666431427002,0.0010000000474974513
0.04962441325187683,0.984000027179718,0.5798360705375671,0.9193333387374878,0.0010000000474974513
0.05134787783026695,0.9860000014305115,0.34505343437194824,0.9413333535194397,0.0010000000474974513
0.02434556744992733,0.9919999837875366,0.2928307354450226,0.9411110877990723,0.0010000000474974513
0.020031316205859184,0.9919999837875366,0.3242259621620178,0.9126666784286499,0.0010000000474974513
0.01793055795133114,0.9959999918937683,0.3529077470302582,0.8953333497047424,0.0010000000474974513
0.030763162299990654,0.9860000014305115,0.36238154768943787,0.9020000100135803,0.0010000000474974513
0.025923898443579674,0.9919999837875366,0.33075565099716187,0.9242222309112549,0.0010000000474974513
0.015875227749347687,0.9959999918937683,0.3029966950416565,0.9313333630561829,0.0010000000474974513
0.008580446243286133,0.9980000257492065,0.30725598335266113,0.9364444613456726,0.0010000000474974513
0.00815207976847887,0.9980000257492065,0.3033950626850128,0.9288889169692993,0.0010000000474974513
0.004151968751102686,1.0,0.30600324273109436,0.9342222213745117,0.0010000000474974513
0.003653009422123432,1.0,0.30227789282798767,0.925777792930603,0.0010000000474974513
0.004187655635178089,1.0,0.29624494910240173,0.9359999895095825,0.0010000000474974513
0.0021734191104769707,1.0,0.30638912320137024,0.9264444708824158,0.0010000000474974513
0.0017530780751258135,1.0,0.30015838146209717,0.9304444193840027,0.0010000000474974513
0.0026870628353208303,1.0,0.32096630334854126,0.914222240447998,0.0010000000474974513
0.002537801628932357,1.0,0.31222426891326904,0.9282222390174866,0.0010000000474974513
0.002208766993135214,1.0,0.31028085947036743,0.9268888831138611,0.0010000000474974513
0.0011603619204834104,1.0,0.315546452999115,0.9275555610656738,0.0010000000474974513
0.001202923129312694,1.0,0.3185018301010132,0.9353333115577698,0.0010000000474974513
0.0012352056801319122,1.0,0.32412904500961304,0.9357777833938599,0.0010000000474974513
0.000877360871527344,1.0,0.3246939480304718,0.9313333630561829,0.0010000000474974513
0.0007193748606368899,1.0,0.32408425211906433,0.9311110973358154,0.0010000000474974513
0.0009303230908699334,1.0,0.32702285051345825,0.9273333549499512,0.0010000000474974513
0.0007512513548135757,1.0,0.3230953812599182,0.9311110973358154,0.0010000000474974513
0.000578329258132726,1.0,0.32420408725738525,0.9359999895095825,0.0010000000474974513
0.001564979669637978,1.0,0.3300679326057434,0.9228888750076294,0.0010000000474974513
0.0011331111891195178,1.0,0.3279896080493927,0.9355555772781372,0.0010000000474974513
0.001524270512163639,1.0,0.34120485186576843,0.9377777576446533,0.0010000000474974513
0.0012551823165267706,1.0,0.3490831255912781,0.9391111135482788,0.0010000000474974513
0.0007571016903966665,1.0,0.3463607728481293,0.9393333196640015,0.0010000000474974513
0.0008590737706981599,1.0,0.3490025997161865,0.9337777495384216,0.0010000000474974513
0.0008070207550190389,1.0,0.3513183891773224,0.9353333115577698,0.0010000000474974513
0.0003971189435105771,1.0,0.351140558719635,0.9355555772781372,0.0010000000474974513
0.0006928285001777112,1.0,0.35011735558509827,0.9353333115577698,0.0010000000474974513
0.00035158920218236744,1.0,0.35267940163612366,0.9346666932106018,0.0010000000474974513
0.0003420783905312419,1.0,0.3540336787700653,0.9364444613456726,0.0010000000474974513
0.0005707515520043671,1.0,0.3563431203365326,0.9348888993263245,0.0010000000474974513
0.0004936065524816513,1.0,0.36116477847099304,0.9357777833938599,0.0010000000474974513
0.0002976843388751149,1.0,0.36959370970726013,0.9386666417121887,0.0010000000474974513
0.0004055074241477996,1.0,0.3712938129901886,0.9380000233650208,0.0010000000474974513
0.00026281081954948604,1.0,0.3679480254650116,0.9364444613456726,0.0010000000474974513
0.00029655921389348805,1.0,0.3693754971027374,0.9371111392974854,0.0010000000474974513
0.00033380393870174885,1.0,0.3708359897136688,0.9375555515289307,0.0010000000474974513
0.0003040629089809954,1.0,0.3728698790073395,0.9382222294807434,0.0010000000474974513
0.0003474186232779175,1.0,0.3790322244167328,0.9386666417121887,0.0010000000474974513
0.0002502191346138716,1.0,0.3815731704235077,0.9393333196640015,0.0010000000474974513
0.00026949497987516224,1.0,0.3826201856136322,0.9391111135482788,0.0010000000474974513
0.00016918043547775596,1.0,0.38230881094932556,0.9380000233650208,0.0010000000474974513
0.00022894951689522713,1.0,0.3831827938556671,0.9380000233650208,0.0010000000474974513
0.00026216547121293843,1.0,0.38228514790534973,0.9375555515289307,0.0010000000474974513
0.00025662145344540477,1.0,0.3815382421016693,0.9380000233650208,0.0010000000474974513
0.00019537463958840817,1.0,0.3821828067302704,0.9397777915000916,0.0010000000474974513
0.0001529149158159271,1.0,0.3841077983379364,0.9397777915000916,0.0010000000474974513
0.00016675374354235828,1.0,0.3863626718521118,0.9397777915000916,0.0010000000474974513
0.0002103783335769549,1.0,0.38696131110191345,0.9386666417121887,0.0010000000474974513
0.00018023695156443864,1.0,0.38906362652778625,0.9386666417121887,0.0010000000474974513
0.0001774395495885983,1.0,0.3909844160079956,0.9393333196640015,0.0010000000474974513
0.0002519004337955266,1.0,0.3891142010688782,0.9371111392974854,0.0010000000474974513
0.00033201646874658763,1.0,0.38889211416244507,0.9375555515289307,0.0010000000474974513
0.0002207368816016242,1.0,0.3900870382785797,0.9386666417121887,0.0010000000474974513
0.0002459023962728679,1.0,0.3924541771411896,0.9408888816833496,0.0010000000474974513
0.0003771995543502271,1.0,0.39365407824516296,0.9391111135482788,0.0010000000474974513
0.00024110273807309568,1.0,0.393633097410202,0.9377777576446533,0.0010000000474974513
0.00024411130289081484,1.0,0.3941914141178131,0.9362221956253052,0.0010000000474974513
0.00014317301975097507,1.0,0.39495500922203064,0.9364444613456726,0.0010000000474974513
0.00021515012485906482,1.0,0.39463695883750916,0.9357777833938599,0.0010000000474974513
0.00016037870955187827,1.0,0.396308034658432,0.9371111392974854,0.0010000000474974513
0.00024391392071265727,1.0,0.39734095335006714,0.9380000233650208,0.0010000000474974513
0.0002379902289249003,1.0,0.4008151888847351,0.9384444355964661,0.0010000000474974513
0.00014116278907749802,1.0,0.4092472791671753,0.9402222037315369,0.0010000000474974513
0.0002589898358564824,1.0,0.40483585000038147,0.9397777915000916,0.0010000000474974513
0.00018459322745911777,1.0,0.3991178870201111,0.9368888735771179,0.0010000000474974513
0.00016528226842638105,1.0,0.3987811803817749,0.937333345413208,0.0010000000474974513
0.00014358221960719675,1.0,0.40125972032546997,0.937333345413208,0.0010000000474974513
9.608772961655632e-05,1.0,0.40552738308906555,0.9384444355964661,0.0010000000474974513
0.00020703113113995641,1.0,0.40811875462532043,0.9391111135482788,0.0010000000474974513
0.00016726907051634043,1.0,0.4101150929927826,0.9391111135482788,0.0010000000474974513
0.00014595799439121038,1.0,0.40944454073905945,0.9395555257797241,0.0010000000474974513
0.0001391349796904251,1.0,0.40819036960601807,0.9395555257797241,0.0010000000474974513
0.0001227312459377572,1.0,0.40732768177986145,0.9380000233650208,0.0010000000474974513
0.0001662834984017536,1.0,0.4098585247993469,0.9382222294807434,0.0010000000474974513
0.00014826258120592684,1.0,0.41456368565559387,0.9395555257797241,0.0010000000474974513
0.00010224193829344586,1.0,0.41817376017570496,0.9397777915000916,0.0010000000474974513
0.00012518579023890197,1.0,0.419691801071167,0.9399999976158142,0.0010000000474974513
0.00014453833864536136,1.0,0.4197145104408264,0.9395555257797241,0.0010000000474974513
9.660674550104886e-05,1.0,0.4175441265106201,0.9391111135482788,0.0010000000474974513
7.586807623738423e-05,1.0,0.41818904876708984,0.9391111135482788,0.0010000000474974513
0.00010028955148300156,1.0,0.41879594326019287,0.9391111135482788,0.0010000000474974513
9.682335803518072e-05,1.0,0.42016685009002686,0.9391111135482788,0.0010000000474974513
0.00014075460785534233,1.0,0.4207971692085266,0.9388889074325562,0.0010000000474974513
0.00012336616055108607,1.0,0.42272594571113586,0.9391111135482788,0.0010000000474974513
9.041817975230515e-05,1.0,0.4243313670158386,0.9393333196640015,0.0010000000474974513
6.644796667387709e-05,1.0,0.42512568831443787,0.9395555257797241,0.0010000000474974513
0.00012846676690969616,1.0,0.42698365449905396,0.9399999976158142,0.0010000000474974513
0.00014413462486118078,1.0,0.4294552803039551,0.9408888816833496,0.0010000000474974513
0.00010458547330927104,1.0,0.4283911883831024,0.9391111135482788,0.0010000000474974513
0.00019172592146787792,1.0,0.4284140467643738,0.9388889074325562,0.0010000000474974513
8.652742690173909e-05,1.0,0.4263746440410614,0.9388889074325562,0.0010000000474974513
0.00018475056276656687,1.0,0.42769160866737366,0.9391111135482788,0.0010000000474974513
0.0001406363444402814,1.0,0.4271940290927887,0.9386666417121887,0.0010000000474974513
0.00010332532838219777,1.0,0.42677226662635803,0.9384444355964661,0.0010000000474974513
9.464341565035284e-05,1.0,0.42305395007133484,0.9384444355964661,0.0010000000474974513
6.096890865592286e-05,1.0,0.4225490093231201,0.9386666417121887,0.0010000000474974513
0.00011558556434465572,1.0,0.42238014936447144,0.9391111135482788,0.0005000000237487257
7.709607598371804e-05,1.0,0.4226934611797333,0.9391111135482788,0.0005000000237487257
0.0001209335241583176,1.0,0.42220938205718994,0.9388889074325562,0.0005000000237487257
6.247672718018293e-05,1.0,0.4225229322910309,0.9388889074325562,0.0005000000237487257
0.00018989210366271436,1.0,0.4211064875125885,0.9391111135482788,0.0005000000237487257
6.655461766058579e-05,1.0,0.42118334770202637,0.9395555257797241,0.0005000000237487257
7.120516238501295e-05,1.0,0.42159131169319153,0.9391111135482788,0.0005000000237487257
0.0001249201304744929,1.0,0.4221718907356262,0.9388889074325562,0.0005000000237487257
0.00010652586934156716,1.0,0.42299526929855347,0.9386666417121887,0.0005000000237487257
8.901623368728906e-05,1.0,0.4250369668006897,0.9386666417121887,0.0005000000237487257
9.583300561644137e-05,1.0,0.4263320565223694,0.9386666417121887,0.0005000000237487257
8.498831448378041e-05,1.0,0.42700058221817017,0.9386666417121887,0.0005000000237487257
0.00019190183957107365,1.0,0.42709213495254517,0.9382222294807434,0.0005000000237487257
5.549482011701912e-05,1.0,0.42630183696746826,0.9382222294807434,0.0005000000237487257
7.745096081634983e-05,1.0,0.42650488018989563,0.9382222294807434,0.0005000000237487257
9.321816469309852e-05,1.0,0.4283718168735504,0.9391111135482788,0.0005000000237487257
5.747765317209996e-05,1.0,0.43001940846443176,0.9391111135482788,0.0005000000237487257
0.00011292540875729173,1.0,0.4311690628528595,0.9391111135482788,0.0005000000237487257
0.00010755466792033985,1.0,0.4328581392765045,0.9395555257797241,0.0005000000237487257
7.4204639531672e-05,1.0,0.433273583650589,0.9393333196640015,0.0005000000237487257
8.735504525247961e-05,1.0,0.4329567551612854,0.9393333196640015,0.0005000000237487257
8.585034083807841e-05,1.0,0.4328450858592987,0.9388889074325562,0.0005000000237487257
7.517884660046548e-05,1.0,0.43189871311187744,0.9388889074325562,0.0005000000237487257
0.00010093712626257911,1.0,0.43178606033325195,0.9382222294807434,0.0005000000237487257
6.988646055106074e-05,1.0,0.43180757761001587,0.9380000233650208,0.0005000000237487257
0.00015146784426178783,1.0,0.4316815733909607,0.9382222294807434,0.0005000000237487257
8.997366967378184e-05,1.0,0.4326774775981903,0.9386666417121887,0.0005000000237487257
6.615836900891736e-05,1.0,0.43245023488998413,0.9384444355964661,0.0005000000237487257
8.645044727018103e-05,1.0,0.4328572154045105,0.9384444355964661,0.0005000000237487257
7.305481267394498e-05,1.0,0.4338793158531189,0.9384444355964661,0.0005000000237487257
6.20180435362272e-05,1.0,0.4345530569553375,0.9384444355964661,0.0005000000237487257
6.55431067571044e-05,1.0,0.43422478437423706,0.9384444355964661,0.0005000000237487257
7.380094029940665e-05,1.0,0.43446263670921326,0.9384444355964661,0.0005000000237487257
9.005033643916249e-05,1.0,0.433490514755249,0.9384444355964661,0.0005000000237487257
5.365596734918654e-05,1.0,0.433237224817276,0.9384444355964661,0.0005000000237487257
7.398432353511453e-05,1.0,0.4332536458969116,0.9384444355964661,0.0005000000237487257
5.8169447584077716e-05,1.0,0.4334217607975006,0.9382222294807434,0.0005000000237487257
7.620018004672602e-05,1.0,0.4341384768486023,0.9382222294807434,0.0005000000237487257
4.915614772471599e-05,1.0,0.4340083599090576,0.9384444355964661,0.0005000000237487257
6.554073479492217e-05,1.0,0.4342302680015564,0.9384444355964661,0.0005000000237487257
0.00017476022185292095,1.0,0.434967577457428,0.9384444355964661,0.0005000000237487257
7.164775161072612e-05,1.0,0.4324118494987488,0.9380000233650208,0.0005000000237487257
8.719971083337441e-05,1.0,0.4322322905063629,0.937333345413208,0.0005000000237487257
7.430953701259568e-05,1.0,0.4331376552581787,0.9371111392974854,0.0005000000237487257
7.828068191884086e-05,1.0,0.4342133402824402,0.9380000233650208,0.0005000000237487257
5.944870281382464e-05,1.0,0.434784471988678,0.9380000233650208,0.0005000000237487257
0.00011149883357575163,1.0,0.43489497900009155,0.9384444355964661,0.0005000000237487257
0.00013346766354516149,1.0,0.43528658151626587,0.9386666417121887,0.0005000000237487257
4.651342169381678e-05,1.0,0.43527084589004517,0.9386666417121887,0.0005000000237487257
7.768780051264912e-05,1.0,0.4359112083911896,0.9386666417121887,0.0005000000237487257
4.986655403627083e-05,1.0,0.43760013580322266,0.9388889074325562,0.0005000000237487257
0.00016448651149403304,1.0,0.43930715322494507,0.9393333196640015,0.0005000000237487257
8.029604941839352e-05,1.0,0.4397202730178833,0.9388889074325562,0.0005000000237487257
9.362012497149408e-05,1.0,0.4392353594303131,0.9388889074325562,0.0005000000237487257
0.00012287568824831396,1.0,0.4381077289581299,0.9388889074325562,0.0005000000237487257
5.410304947872646e-05,1.0,0.4360039532184601,0.9386666417121887,0.0005000000237487257
6.550503167090937e-05,1.0,0.4356914758682251,0.9384444355964661,0.0005000000237487257
0.00011284070205874741,1.0,0.43509405851364136,0.9382222294807434,0.0005000000237487257
5.9357829741202295e-05,1.0,0.4351728558540344,0.9380000233650208,0.0005000000237487257
6.112828123150393e-05,1.0,0.4359966218471527,0.9382222294807434,0.0005000000237487257
7.130117592168972e-05,1.0,0.4363386631011963,0.9382222294807434,0.0005000000237487257
5.273616625345312e-05,1.0,0.43580278754234314,0.9382222294807434,0.0005000000237487257
5.3435451263794675e-05,1.0,0.43645745515823364,0.9380000233650208,0.0005000000237487257
8.944758883444592e-05,1.0,0.4367680251598358,0.9384444355964661,0.0005000000237487257
4.8139561840798706e-05,1.0,0.43754303455352783,0.9388889074325562,0.0005000000237487257
7.497319165850058e-05,1.0,0.43927422165870667,0.9391111135482788,0.0005000000237487257
7.365682540694252e-05,1.0,0.4417930245399475,0.9397777915000916,0.0005000000237487257
9.352055349154398e-05,1.0,0.44076406955718994,0.9393333196640015,0.0005000000237487257
5.654333654092625e-05,1.0,0.4401446282863617,0.9397777915000916,0.0005000000237487257
7.02350735082291e-05,1.0,0.4402916431427002,0.9393333196640015,0.0005000000237487257
5.51871198695153e-05,1.0,0.44051820039749146,0.9391111135482788,0.0005000000237487257
6.107697117840871e-05,1.0,0.44099247455596924,0.9386666417121887,0.0005000000237487257
4.008067844551988e-05,1.0,0.4411963224411011,0.9388889074325562,0.0005000000237487257
5.134028833708726e-05,1.0,0.4414728879928589,0.9386666417121887,0.0005000000237487257
8.0364930909127e-05,1.0,0.441292405128479,0.9384444355964661,0.0005000000237487257
8.519322000211105e-05,1.0,0.4413425922393799,0.9377777576446533,0.0005000000237487257
6.180626951390877e-05,1.0,0.4414338171482086,0.937333345413208,0.0005000000237487257
6.957976438570768e-05,1.0,0.44207507371902466,0.937333345413208,0.0005000000237487257
6.158440373837948e-05,1.0,0.441974014043808,0.9382222294807434,0.0005000000237487257
5.8640725910663605e-05,1.0,0.4417869448661804,0.9388889074325562,0.0005000000237487257
5.56651248189155e-05,1.0,0.44156450033187866,0.9393333196640015,0.0005000000237487257
3.557512172847055e-05,1.0,0.44171053171157837,0.9395555257797241,0.0005000000237487257
5.062857235316187e-05,1.0,0.44220641255378723,0.9393333196640015,0.0005000000237487257
5.935279477853328e-05,1.0,0.44364866614341736,0.9395555257797241,0.0005000000237487257
5.31741461600177e-05,1.0,0.4442686438560486,0.9395555257797241,0.0005000000237487257
6.54674440738745e-05,1.0,0.44401758909225464,0.9393333196640015,0.0005000000237487257
4.7123441618168727e-05,1.0,0.44283872842788696,0.9386666417121887,0.0005000000237487257
5.429403972811997e-05,1.0,0.4428722560405731,0.9386666417121887,0.0005000000237487257
5.6474364100722596e-05,1.0,0.4422134757041931,0.9382222294807434,0.0005000000237487257
8.729156252229586e-05,1.0,0.442300945520401,0.9380000233650208,0.0002500000118743628
5.134777893545106e-05,1.0,0.4423004686832428,0.9382222294807434,0.0002500000118743628
3.0225182854337618e-05,1.0,0.44240689277648926,0.9382222294807434,0.0002500000118743628
3.699818626046181e-05,1.0,0.44256237149238586,0.9382222294807434,0.0002500000118743628
4.544972034636885e-05,1.0,0.44269636273384094,0.9382222294807434,0.0002500000118743628
3.720383028849028e-05,1.0,0.4431523084640503,0.9386666417121887,0.0002500000118743628
0.00011119560804218054,1.0,0.4435689151287079,0.9386666417121887,0.0002500000118743628
5.3014147852081805e-05,1.0,0.4438621699810028,0.9391111135482788,0.0002500000118743628
4.800918759428896e-05,1.0,0.4438791275024414,0.9388889074325562,0.0002500000118743628
5.6420765758957714e-05,1.0,0.4440164268016815,0.9391111135482788,0.0002500000118743628
8.297863678308204e-05,1.0,0.4452146887779236,0.9391111135482788,0.0002500000118743628
5.077019886812195e-05,1.0,0.44586825370788574,0.9391111135482788,0.0002500000118743628
5.284720828058198e-05,1.0,0.446604460477829,0.9391111135482788,0.0002500000118743628
3.785009903367609e-05,1.0,0.44696617126464844,0.9393333196640015,0.0002500000118743628
3.4981087082996964e-05,1.0,0.4474071264266968,0.9391111135482788,0.0002500000118743628
4.901186912320554e-05,1.0,0.4476454257965088,0.9393333196640015,0.0002500000118743628
7.367840589722618e-05,1.0,0.4475340247154236,0.9393333196640015,0.0002500000118743628
4.5552173105534166e-05,1.0,0.44773268699645996,0.9393333196640015,0.0002500000118743628
4.82846335216891e-05,1.0,0.44763657450675964,0.9391111135482788,0.0002500000118743628
3.812109571299516e-05,1.0,0.44744572043418884,0.9388889074325562,0.0002500000118743628
5.495664299814962e-05,1.0,0.4469539523124695,0.9391111135482788,0.0002500000118743628
5.732480713049881e-05,1.0,0.44671007990837097,0.9391111135482788,0.0002500000118743628
6.678720819763839e-05,1.0,0.4469524025917053,0.9391111135482788,0.0002500000118743628
7.466911483788863e-05,1.0,0.44760751724243164,0.9395555257797241,0.0002500000118743628
5.006944411434233e-05,1.0,0.44775837659835815,0.9388889074325562,0.0002500000118743628
4.871525743510574e-05,1.0,0.447687029838562,0.9386666417121887,0.0002500000118743628
7.085521792760119e-05,1.0,0.44785770773887634,0.9386666417121887,0.0002500000118743628
4.100456862943247e-05,1.0,0.44773146510124207,0.9384444355964661,0.0002500000118743628
4.023269138997421e-05,1.0,0.4478553235530853,0.9384444355964661,0.0002500000118743628
5.1053109928034246e-05,1.0,0.4477037787437439,0.9386666417121887,0.0002500000118743628
5.053990025771782e-05,1.0,0.44710031151771545,0.9388889074325562,0.0002500000118743628
7.627406012034044e-05,1.0,0.4472929835319519,0.9393333196640015,0.0002500000118743628
2.8508517061709426e-05,1.0,0.44672921299934387,0.9393333196640015,0.0002500000118743628
2.846065217454452e-05,1.0,0.44672614336013794,0.9395555257797241,0.0002500000118743628
3.643068703240715e-05,1.0,0.4466506838798523,0.9395555257797241,0.0002500000118743628
3.826568354270421e-05,1.0,0.44642043113708496,0.9397777915000916,0.0002500000118743628
3.341975389048457e-05,1.0,0.4463766813278198,0.9397777915000916,0.0002500000118743628
6.887247582199052e-05,1.0,0.44609296321868896,0.9397777915000916,0.0002500000118743628
2.990035864058882e-05,1.0,0.4451764225959778,0.9395555257797241,0.0002500000118743628
6.599749031011015e-05,1.0,0.4451468288898468,0.9395555257797241,0.0002500000118743628
3.5596331144915894e-05,1.0,0.44539207220077515,0.9395555257797241,0.0002500000118743628
6.634076271438971e-05,1.0,0.4454340934753418,0.9393333196640015,0.0002500000118743628
4.761417949339375e-05,1.0,0.44549933075904846,0.9391111135482788,0.0002500000118743628
5.3758521971758455e-05,1.0,0.44507211446762085,0.9393333196640015,0.0002500000118743628
3.74173978343606e-05,1.0,0.44509968161582947,0.9395555257797241,0.0002500000118743628
6.864585884613916e-05,1.0,0.44510555267333984,0.9395555257797241,0.0002500000118743628
4.007014285889454e-05,1.0,0.4454055726528168,0.9395555257797241,0.0002500000118743628
4.190364052192308e-05,1.0,0.445862352848053,0.9395555257797241,0.0002500000118743628
2.8318698241491802e-05,1.0,0.446099191904068,0.9395555257797241,0.0002500000118743628
4.444689693627879e-05,1.0,0.44641610980033875,0.9395555257797241,0.0002500000118743628
5.56414233869873e-05,1.0,0.44648709893226624,0.9395555257797241,0.0001250000059371814
3.6074448871659115e-05,1.0,0.44653886556625366,0.9395555257797241,0.0001250000059371814
5.728548421757296e-05,1.0,0.4467596411705017,0.9395555257797241,0.0001250000059371814
5.562274236581288e-05,1.0,0.4466814696788788,0.9395555257797241,0.0001250000059371814
3.412845398997888e-05,1.0,0.44705137610435486,0.9393333196640015,0.0001250000059371814
3.517978984746151e-05,1.0,0.4473363757133484,0.9393333196640015,0.0001250000059371814
6.367745663737878e-05,1.0,0.44786369800567627,0.9393333196640015,0.0001250000059371814
4.213968350086361e-05,1.0,0.4483364522457123,0.9393333196640015,0.0001250000059371814
2.9313983759493567e-05,1.0,0.448600709438324,0.9393333196640015,0.0001250000059371814
3.822545477305539e-05,1.0,0.44879961013793945,0.9393333196640015,0.0001250000059371814
3.902786556864157e-05,1.0,0.44920751452445984,0.9393333196640015,0.0001250000059371814
5.0031238060910255e-05,1.0,0.4495084881782532,0.9395555257797241,0.0001250000059371814
4.062812513438985e-05,1.0,0.44958510994911194,0.9395555257797241,0.0001250000059371814
2.8559870770550333e-05,1.0,0.44943687319755554,0.9395555257797241,0.0001250000059371814
4.6291857870528474e-05,1.0,0.44957685470581055,0.9397777915000916,0.0001250000059371814
3.704382834257558e-05,1.0,0.44988515973091125,0.9397777915000916,0.0001250000059371814
3.4303062420804054e-05,1.0,0.4499315917491913,0.9397777915000916,0.0001250000059371814
3.89744272979442e-05,1.0,0.4499933123588562,0.9397777915000916,0.0001250000059371814
4.401970363687724e-05,1.0,0.44991084933280945,0.9397777915000916,0.0001250000059371814
6.842985021648929e-05,1.0,0.4498975872993469,0.9397777915000916,0.0001250000059371814
4.981682650395669e-05,1.0,0.45028212666511536,0.9397777915000916,0.0001250000059371814
3.971307160099968e-05,1.0,0.45035988092422485,0.9397777915000916,0.0001250000059371814
4.7403056669281796e-05,1.0,0.45053747296333313,0.9397777915000916,0.0001250000059371814
3.8138321542646736e-05,1.0,0.4505833387374878,0.9397777915000916,0.0001250000059371814
4.4796430302085355e-05,1.0,0.45035818219184875,0.9397777915000916,0.0001250000059371814
3.761539119295776e-05,1.0,0.4501800239086151,0.9397777915000916,0.0001250000059371814
9.231676085619256e-05,1.0,0.4500872790813446,0.9397777915000916,0.0001250000059371814
4.6038225264055654e-05,1.0,0.4500514268875122,0.9397777915000916,0.0001250000059371814
7.795312558300793e-05,1.0,0.44992777705192566,0.9397777915000916,0.0001250000059371814
3.832210131804459e-05,1.0,0.44955918192863464,0.9397777915000916,0.0001250000059371814
5.635988782159984e-05,1.0,0.4490973651409149,0.9397777915000916,0.0001250000059371814
4.661930870497599e-05,1.0,0.44891357421875,0.9397777915000916,0.0001250000059371814
3.656030821730383e-05,1.0,0.44923222064971924,0.9395555257797241,0.0001250000059371814
6.718753138557076e-05,1.0,0.4496040642261505,0.9397777915000916,0.0001250000059371814
4.790946695720777e-05,1.0,0.4499017298221588,0.9399999976158142,0.0001250000059371814
3.849506174447015e-05,1.0,0.4500619173049927,0.9399999976158142,0.0001250000059371814
2.66758979705628e-05,1.0,0.45031020045280457,0.9399999976158142,0.0001250000059371814
3.620526331360452e-05,1.0,0.4505828320980072,0.9399999976158142,0.0001250000059371814
4.265436655259691e-05,1.0,0.4506886601448059,0.9402222037315369,0.0001250000059371814
4.069377246196382e-05,1.0,0.45068997144699097,0.9399999976158142,0.0001250000059371814
4.362333129392937e-05,1.0,0.45029890537261963,0.9399999976158142,0.0001250000059371814
3.3028991310857236e-05,1.0,0.45026472210884094,0.9397777915000916,0.0001250000059371814
5.8634996094042435e-05,1.0,0.4501315653324127,0.9397777915000916,0.0001250000059371814
5.608830906567164e-05,1.0,0.44981950521469116,0.9395555257797241,0.0001250000059371814
4.222836287226528e-05,1.0,0.44951820373535156,0.9395555257797241,0.0001250000059371814
3.501538230921142e-05,1.0,0.44957131147384644,0.9395555257797241,0.0001250000059371814
3.152620047330856e-05,1.0,0.44979211688041687,0.9395555257797241,0.0001250000059371814
6.623211083933711e-05,1.0,0.44985899329185486,0.9395555257797241,0.0001250000059371814
3.21411389450077e-05,1.0,0.45023903250694275,0.9395555257797241,0.0001250000059371814
4.3425505282357335e-05,1.0,0.4507366120815277,0.9395555257797241,0.0001250000059371814
5.777370824944228e-05,1.0,0.45148172974586487,0.9395555257797241,9.999999747378752e-05
3.233732422813773e-05,1.0,0.4519072473049164,0.9397777915000916,9.999999747378752e-05
3.872732486343011e-05,1.0,0.45244866609573364,0.9399999976158142,9.999999747378752e-05
3.8742080505471677e-05,1.0,0.45272117853164673,0.9399999976158142,9.999999747378752e-05
5.2568353567039594e-05,1.0,0.45288753509521484,0.9399999976158142,9.999999747378752e-05
4.249598350725137e-05,1.0,0.4530608654022217,0.9402222037315369,9.999999747378752e-05
4.50736224593129e-05,1.0,0.45262157917022705,0.9399999976158142,9.999999747378752e-05
3.867639316013083e-05,1.0,0.45221850275993347,0.9399999976158142,9.999999747378752e-05
4.778142101713456e-05,1.0,0.4521981477737427,0.9399999976158142,9.999999747378752e-05
3.118437234661542e-05,1.0,0.4522193670272827,0.9399999976158142,9.999999747378752e-05
2.553760350565426e-05,1.0,0.45220059156417847,0.9399999976158142,9.999999747378752e-05
2.774216773104854e-05,1.0,0.4520162343978882,0.9399999976158142,9.999999747378752e-05
4.6368448238354176e-05,1.0,0.45182663202285767,0.9397777915000916,9.999999747378752e-05
3.165551970596425e-05,1.0,0.45161500573158264,0.9397777915000916,9.999999747378752e-05
2.7997135475743562e-05,1.0,0.45165443420410156,0.9397777915000916,9.999999747378752e-05
2.366094122407958e-05,1.0,0.45163050293922424,0.9397777915000916,9.999999747378752e-05
4.501034345594235e-05,1.0,0.45170795917510986,0.9399999976158142,9.999999747378752e-05
3.894546898663975e-05,1.0,0.45160743594169617,0.9399999976158142,9.999999747378752e-05
7.215979712782428e-05,1.0,0.4516454041004181,0.9399999976158142,9.999999747378752e-05
5.005787170375697e-05,1.0,0.4514901638031006,0.9402222037315369,9.999999747378752e-05
3.3928328775800765e-05,1.0,0.451691210269928,0.9402222037315369,9.999999747378752e-05
3.164973168168217e-05,1.0,0.45171862840652466,0.9399999976158142,9.999999747378752e-05
2.162714554287959e-05,1.0,0.45170003175735474,0.9399999976158142,9.999999747378752e-05
4.4036118197254837e-05,1.0,0.45198896527290344,0.9399999976158142,9.999999747378752e-05
4.110576992388815e-05,1.0,0.4523373246192932,0.9402222037315369,9.999999747378752e-05
4.231017010170035e-05,1.0,0.45238620042800903,0.9402222037315369,9.999999747378752e-05
7.947522681206465e-05,1.0,0.45274069905281067,0.9402222037315369,9.999999747378752e-05
3.274910704931244e-05,1.0,0.4530085325241089,0.9402222037315369,9.999999747378752e-05
3.150630072923377e-05,1.0,0.45297548174858093,0.9402222037315369,9.999999747378752e-05
2.5437751901336014e-05,1.0,0.4528256952762604,0.9402222037315369,9.999999747378752e-05
2.0595602109096944e-05,1.0,0.45290884375572205,0.9402222037315369,9.999999747378752e-05
6.362426211126149e-05,1.0,0.4530510902404785,0.9402222037315369,9.999999747378752e-05
3.540120451361872e-05,1.0,0.4532604217529297,0.9402222037315369,9.999999747378752e-05
4.775027264258824e-05,1.0,0.45332077145576477,0.9399999976158142,9.999999747378752e-05
4.2390736780362204e-05,1.0,0.45332980155944824,0.9399999976158142,9.999999747378752e-05
3.839993223664351e-05,1.0,0.45314356684684753,0.9399999976158142,9.999999747378752e-05
4.1032082663150504e-05,1.0,0.45317211747169495,0.9399999976158142,9.999999747378752e-05
3.934422420570627e-05,1.0,0.453025221824646,0.9399999976158142,9.999999747378752e-05
2.821331327140797e-05,1.0,0.4531317353248596,0.9399999976158142,9.999999747378752e-05
2.4938848582678474e-05,1.0,0.45307859778404236,0.9399999976158142,9.999999747378752e-05
2.2657408408122137e-05,1.0,0.452989399433136,0.9399999976158142,9.999999747378752e-05
3.0302417144412175e-05,1.0,0.4529895782470703,0.9399999976158142,9.999999747378752e-05
3.790514529100619e-05,1.0,0.45324110984802246,0.9399999976158142,9.999999747378752e-05
2.401017081865575e-05,1.0,0.4532095491886139,0.9399999976158142,9.999999747378752e-05
5.273824353935197e-05,1.0,0.4534454941749573,0.9399999976158142,9.999999747378752e-05
3.0897172109689564e-05,1.0,0.45298779010772705,0.9399999976158142,9.999999747378752e-05
2.8181470042909496e-05,1.0,0.452804833650589,0.9399999976158142,9.999999747378752e-05
2.7826947189169005e-05,1.0,0.45272019505500793,0.9399999976158142,9.999999747378752e-05
3.4415792470099404e-05,1.0,0.4525013864040375,0.9402222037315369,9.999999747378752e-05
2.9914930564700626e-05,1.0,0.452330619096756,0.9402222037315369,9.999999747378752e-05
3.363742507644929e-05,1.0,0.45212268829345703,0.9399999976158142,9.999999747378752e-05
2.5461864424869418e-05,1.0,0.4517683982849121,0.9402222037315369,9.999999747378752e-05
4.858939428231679e-05,1.0,0.45159202814102173,0.9402222037315369,9.999999747378752e-05
2.6147648895857856e-05,1.0,0.4516128897666931,0.9399999976158142,9.999999747378752e-05
2.478556962159928e-05,1.0,0.45175158977508545,0.9399999976158142,9.999999747378752e-05
7.343645120272413e-05,1.0,0.452341228723526,0.9397777915000916,9.999999747378752e-05
7.748134521534666e-05,1.0,0.4527490735054016,0.9399999976158142,9.999999747378752e-05
2.326970388821792e-05,1.0,0.45315122604370117,0.9399999976158142,9.999999747378752e-05
5.444925409392454e-05,1.0,0.4533355236053467,0.9399999976158142,9.999999747378752e-05
5.532340583158657e-05,1.0,0.4533902108669281,0.9399999976158142,9.999999747378752e-05
4.010952397948131e-05,1.0,0.45356228947639465,0.9399999976158142,9.999999747378752e-05
3.891752930940129e-05,1.0,0.45352867245674133,0.9397777915000916,9.999999747378752e-05
3.836469113593921e-05,1.0,0.45380353927612305,0.9399999976158142,9.999999747378752e-05
2.1716276023653336e-05,1.0,0.4539327919483185,0.9399999976158142,9.999999747378752e-05
3.831719368463382e-05,1.0,0.45416882634162903,0.9399999976158142,9.999999747378752e-05
2.715194204938598e-05,1.0,0.45438820123672485,0.9399999976158142,9.999999747378752e-05
3.910346276825294e-05,1.0,0.45458394289016724,0.9399999976158142,9.999999747378752e-05
3.9950551581569016e-05,1.0,0.4546184241771698,0.9399999976158142,9.999999747378752e-05
2.5561017537256703e-05,1.0,0.4546273946762085,0.9399999976158142,9.999999747378752e-05
3.96329523937311e-05,1.0,0.4545280635356903,0.9399999976158142,9.999999747378752e-05
4.312998498789966e-05,1.0,0.4542657732963562,0.9399999976158142,9.999999747378752e-05
2.446309372317046e-05,1.0,0.45402073860168457,0.9399999976158142,9.999999747378752e-05
3.3356940548401326e-05,1.0,0.4538974165916443,0.9399999976158142,9.999999747378752e-05
4.5582823076983914e-05,1.0,0.45384103059768677,0.9399999976158142,9.999999747378752e-05
2.461021540511865e-05,1.0,0.4535728394985199,0.9397777915000916,9.999999747378752e-05
2.502390452718828e-05,1.0,0.45351552963256836,0.9397777915000916,9.999999747378752e-05
3.450848089414649e-05,1.0,0.45352599024772644,0.9397777915000916,9.999999747378752e-05
5.885493737878278e-05,1.0,0.45372673869132996,0.9397777915000916,9.999999747378752e-05
3.434399695834145e-05,1.0,0.4537809491157532,0.9399999976158142,9.999999747378752e-05
2.6537420126260258e-05,1.0,0.4538406431674957,0.9399999976158142,9.999999747378752e-05
3.353471402078867e-05,1.0,0.45392492413520813,0.9399999976158142,9.999999747378752e-05
5.468643212225288e-05,1.0,0.4540479779243469,0.9399999976158142,9.999999747378752e-05
2.4205231966334395e-05,1.0,0.45403915643692017,0.9399999976158142,9.999999747378752e-05
6.007741831126623e-05,1.0,0.45431241393089294,0.9399999976158142,9.999999747378752e-05
2.4450651835650206e-05,1.0,0.45446038246154785,0.9399999976158142,9.999999747378752e-05
3.796172313741408e-05,1.0,0.4547649323940277,0.9399999976158142,9.999999747378752e-05
3.027454840776045e-05,1.0,0.45522037148475647,0.9399999976158142,9.999999747378752e-05
2.923813372035511e-05,1.0,0.4552381634712219,0.9399999976158142,9.999999747378752e-05
2.6912921384791844e-05,1.0,0.4553526043891907,0.9399999976158142,9.999999747378752e-05
3.0043711376492865e-05,1.0,0.45535656809806824,0.9399999976158142,9.999999747378752e-05
5.145748582435772e-05,1.0,0.45524245500564575,0.9399999976158142,9.999999747378752e-05
2.3378554033115506e-05,1.0,0.45516443252563477,0.9399999976158142,9.999999747378752e-05
2.1354986529331654e-05,1.0,0.45512276887893677,0.9399999976158142,9.999999747378752e-05
3.586327875382267e-05,1.0,0.4553030729293823,0.9399999976158142,9.999999747378752e-05
2.2724281734554097e-05,1.0,0.45535871386528015,0.9399999976158142,9.999999747378752e-05
2.2705424271407537e-05,1.0,0.4552555978298187,0.9399999976158142,9.999999747378752e-05
3.1824027246329933e-05,1.0,0.4550289511680603,0.9399999976158142,9.999999747378752e-05
2.1409352484624833e-05,1.0,0.4550909399986267,0.9397777915000916,9.999999747378752e-05
3.461846790742129e-05,1.0,0.455009400844574,0.9397777915000916,9.999999747378752e-05
3.294582711532712e-05,1.0,0.4551864564418793,0.9399999976158142,9.999999747378752e-05
5.1813334721373394e-05,1.0,0.4555508494377136,0.9399999976158142,9.999999747378752e-05
2.193891123170033e-05,1.0,0.45581191778182983,0.9402222037315369,9.999999747378752e-05
3.250440931878984e-05,1.0,0.45594552159309387,0.9402222037315369,9.999999747378752e-05
3.23772692354396e-05,1.0,0.45593884587287903,0.9402222037315369,9.999999747378752e-05
4.1577273805160075e-05,1.0,0.4560394883155823,0.9402222037315369,9.999999747378752e-05
4.396820440888405e-05,1.0,0.45614832639694214,0.9402222037315369,9.999999747378752e-05
3.960099638788961e-05,1.0,0.4562688171863556,0.9399999976158142,9.999999747378752e-05
3.220254075131379e-05,1.0,0.45621418952941895,0.9402222037315369,9.999999747378752e-05
2.7517111448105425e-05,1.0,0.4561702013015747,0.9402222037315369,9.999999747378752e-05
2.4955628759926185e-05,1.0,0.4561559855937958,0.9402222037315369,9.999999747378752e-05
3.7831701774848625e-05,1.0,0.4564400613307953,0.9402222037315369,9.999999747378752e-05
5.102315844851546e-05,1.0,0.45622286200523376,0.9402222037315369,9.999999747378752e-05
2.7703636078513227e-05,1.0,0.45581793785095215,0.9399999976158142,9.999999747378752e-05
3.453284807619639e-05,1.0,0.4562080204486847,0.9399999976158142,9.999999747378752e-05
3.4550477721495554e-05,1.0,0.4565286934375763,0.9399999976158142,9.999999747378752e-05
8.495483780279756e-05,1.0,0.4561067223548889,0.9399999976158142,9.999999747378752e-05
2.2422582333092578e-05,1.0,0.4559490978717804,0.9399999976158142,9.999999747378752e-05
3.1281222618417814e-05,1.0,0.45597726106643677,0.9397777915000916,9.999999747378752e-05
2.2143694877740927e-05,1.0,0.4560232162475586,0.9397777915000916,9.999999747378752e-05
4.970702502760105e-05,1.0,0.4563860595226288,0.9397777915000916,9.999999747378752e-05
3.34737342200242e-05,1.0,0.4565505087375641,0.9397777915000916,9.999999747378752e-05
2.978143129439559e-05,1.0,0.45675960183143616,0.9399999976158142,9.999999747378752e-05
3.407390249776654e-05,1.0,0.4569353759288788,0.9402222037315369,9.999999747378752e-05
2.995301110786386e-05,1.0,0.4569350481033325,0.9402222037315369,9.999999747378752e-05
3.547577216522768e-05,1.0,0.45670828223228455,0.9402222037315369,9.999999747378752e-05
3.540956095093861e-05,1.0,0.45667338371276855,0.9404444694519043,9.999999747378752e-05
2.130583015969023e-05,1.0,0.4567525088787079,0.9402222037315369,9.999999747378752e-05
4.4212159991730005e-05,1.0,0.45655763149261475,0.9402222037315369,9.999999747378752e-05
2.3421433070325293e-05,1.0,0.45621609687805176,0.9404444694519043,9.999999747378752e-05
2.0509532987489365e-05,1.0,0.4561394453048706,0.9404444694519043,9.999999747378752e-05
3.958374873036519e-05,1.0,0.4563683867454529,0.9404444694519043,9.999999747378752e-05
2.6240006263833493e-05,1.0,0.4564456343650818,0.9402222037315369,9.999999747378752e-05
3.919464870705269e-05,1.0,0.45659661293029785,0.9402222037315369,9.999999747378752e-05
3.341860428918153e-05,1.0,0.457011342048645,0.9399999976158142,9.999999747378752e-05
3.054004264413379e-05,1.0,0.45754173398017883,0.9397777915000916,9.999999747378752e-05
3.107565134996548e-05,1.0,0.4580252170562744,0.9402222037315369,9.999999747378752e-05
3.1608920835424215e-05,1.0,0.4583907425403595,0.9402222037315369,9.999999747378752e-05
2.8790795113309287e-05,1.0,0.4583379328250885,0.9402222037315369,9.999999747378752e-05
3.7436228012666106e-05,1.0,0.45813730359077454,0.9402222037315369,9.999999747378752e-05
8.683251508045942e-05,1.0,0.45689061284065247,0.9397777915000916,9.999999747378752e-05
2.3622063963557594e-05,1.0,0.4568740725517273,0.9397777915000916,9.999999747378752e-05
4.4499105570139363e-05,1.0,0.4577121436595917,0.9397777915000916,9.999999747378752e-05
2.1450341591844335e-05,1.0,0.45821213722229004,0.9397777915000916,9.999999747378752e-05
6.816870154580101e-05,1.0,0.4588933289051056,0.9395555257797241,9.999999747378752e-05
3.970228135585785e-05,1.0,0.45920443534851074,0.9397777915000916,9.999999747378752e-05
3.536923759384081e-05,1.0,0.45943424105644226,0.9397777915000916,9.999999747378752e-05
2.1986543288221583e-05,1.0,0.4596758782863617,0.9395555257797241,9.999999747378752e-05
4.162283585174009e-05,1.0,0.45950421690940857,0.9395555257797241,9.999999747378752e-05
3.2475807529408485e-05,1.0,0.4592880308628082,0.9397777915000916,9.999999747378752e-05
1.9493711079121567e-05,1.0,0.45949241518974304,0.9399999976158142,9.999999747378752e-05
3.9009613828966394e-05,1.0,0.45982953906059265,0.9402222037315369,9.999999747378752e-05
2.8113287044106983e-05,1.0,0.46016931533813477,0.9402222037315369,9.999999747378752e-05
4.460319541976787e-05,1.0,0.46035876870155334,0.9402222037315369,9.999999747378752e-05
2.5871977413771674e-05,1.0,0.4604780375957489,0.9402222037315369,9.999999747378752e-05
2.030933683272451e-05,1.0,0.46048328280448914,0.9402222037315369,9.999999747378752e-05
2.0520943508017808e-05,1.0,0.460525780916214,0.9402222037315369,9.999999747378752e-05
3.978922177338973e-05,1.0,0.46007949113845825,0.9402222037315369,9.999999747378752e-05
1.3946074432169553e-05,1.0,0.45987769961357117,0.9399999976158142,9.999999747378752e-05
2.5947590984287672e-05,1.0,0.4600154757499695,0.9399999976158142,9.999999747378752e-05
1.843196150730364e-05,1.0,0.459984689950943,0.9399999976158142,9.999999747378752e-05
4.291137520340271e-05,1.0,0.45997217297554016,0.9402222037315369,9.999999747378752e-05
3.2115622161654755e-05,1.0,0.4596673250198364,0.9402222037315369,9.999999747378752e-05
2.1371975890360773e-05,1.0,0.4594407081604004,0.9402222037315369,9.999999747378752e-05
3.4703421988524497e-05,1.0,0.4592834711074829,0.9402222037315369,9.999999747378752e-05
3.5304132325109094e-05,1.0,0.45910122990608215,0.9399999976158142,9.999999747378752e-05
2.6927671569865197e-05,1.0,0.45922592282295227,0.9399999976158142,9.999999747378752e-05
2.026379843300674e-05,1.0,0.45925992727279663,0.9399999976158142,9.999999747378752e-05
2.7295905965729617e-05,1.0,0.4593951404094696,0.9399999976158142,9.999999747378752e-05
3.17045851261355e-05,1.0,0.45929938554763794,0.9399999976158142,9.999999747378752e-05
2.3072114345268346e-05,1.0,0.45917126536369324,0.9399999976158142,9.999999747378752e-05
4.011940472992137e-05,1.0,0.45930880308151245,0.9399999976158142,9.999999747378752e-05
3.8858430343680084e-05,1.0,0.45957112312316895,0.9404444694519043,9.999999747378752e-05
4.575123602990061e-05,1.0,0.45969557762145996,0.9404444694519043,9.999999747378752e-05
3.2413048757007346e-05,1.0,0.4600861966609955,0.9402222037315369,9.999999747378752e-05
4.811943290405907e-05,1.0,0.4600513279438019,0.9402222037315369,9.999999747378752e-05
2.8998560082982294e-05,1.0,0.45922791957855225,0.9402222037315369,9.999999747378752e-05
3.427149204071611e-05,1.0,0.4585929214954376,0.9399999976158142,9.999999747378752e-05
3.1114424928091466e-05,1.0,0.4583980143070221,0.9399999976158142,9.999999747378752e-05
2.864178350137081e-05,1.0,0.4583436846733093,0.9399999976158142,9.999999747378752e-05
3.458734863670543e-05,1.0,0.457768976688385,0.9402222037315369,9.999999747378752e-05
3.170120544382371e-05,1.0,0.4573546051979065,0.9402222037315369,9.999999747378752e-05
2.2361487935995683e-05,1.0,0.45688244700431824,0.9402222037315369,9.999999747378752e-05
2.918964673881419e-05,1.0,0.4565652012825012,0.9402222037315369,9.999999747378752e-05
1.88199155672919e-05,1.0,0.45665180683135986,0.9404444694519043,9.999999747378752e-05
2.3621229047421366e-05,1.0,0.45691439509391785,0.9404444694519043,9.999999747378752e-05
5.067311940365471e-05,1.0,0.4572296142578125,0.9404444694519043,9.999999747378752e-05
2.800414767989423e-05,1.0,0.45763900876045227,0.9402222037315369,9.999999747378752e-05
2.7601678084465675e-05,1.0,0.45793724060058594,0.9402222037315369,9.999999747378752e-05
2.952372051368002e-05,1.0,0.4582374095916748,0.9402222037315369,9.999999747378752e-05
2.4848613975336775e-05,1.0,0.4586426913738251,0.9402222037315369,9.999999747378752e-05
4.7282206651289016e-05,1.0,0.45938801765441895,0.9404444694519043,9.999999747378752e-05
2.207038414780982e-05,1.0,0.45969125628471375,0.9404444694519043,9.999999747378752e-05
1.826520383474417e-05,1.0,0.4598802626132965,0.940666675567627,9.999999747378752e-05
1.8283319150214083e-05,1.0,0.4599091112613678,0.940666675567627,9.999999747378752e-05
5.3815987484995276e-05,1.0,0.4596615135669708,0.9402222037315369,9.999999747378752e-05
3.737325096153654e-05,1.0,0.4593200981616974,0.9393333196640015,9.999999747378752e-05
7.658993126824498e-05,1.0,0.4565678834915161,0.9393333196640015,9.999999747378752e-05
2.0669436707976274e-05,1.0,0.45597174763679504,0.9393333196640015,9.999999747378752e-05
2.869824857043568e-05,1.0,0.45631951093673706,0.9397777915000916,9.999999747378752e-05
3.2804957299958915e-05,1.0,0.4573378264904022,0.9397777915000916,9.999999747378752e-05
4.44029392383527e-05,1.0,0.45743006467819214,0.9397777915000916,9.999999747378752e-05
2.6592240828904323e-05,1.0,0.457743376493454,0.9402222037315369,9.999999747378752e-05
3.0943214369472116e-05,1.0,0.4577229917049408,0.9399999976158142,9.999999747378752e-05
5.0489015848143026e-05,1.0,0.4581356346607208,0.9402222037315369,9.999999747378752e-05
3.479327278910205e-05,1.0,0.45870083570480347,0.9402222037315369,9.999999747378752e-05
2.5630768504925072e-05,1.0,0.45913276076316833,0.9404444694519043,9.999999747378752e-05
3.0568084184778854e-05,1.0,0.4598691463470459,0.940666675567627,9.999999747378752e-05
2.3334301658906043e-05,1.0,0.4598616659641266,0.9404444694519043,9.999999747378752e-05
4.8933259677141905e-05,1.0,0.4598981738090515,0.940666675567627,9.999999747378752e-05
3.761421248782426e-05,1.0,0.45964914560317993,0.940666675567627,9.999999747378752e-05
2.630690869409591e-05,1.0,0.4604266583919525,0.9404444694519043,9.999999747378752e-05
2.5777109840419143e-05,1.0,0.4608389735221863,0.9404444694519043,9.999999747378752e-05
2.0712852347060107e-05,1.0,0.4607789218425751,0.9404444694519043,9.999999747378752e-05
1.6264017176581547e-05,1.0,0.4607880413532257,0.9404444694519043,9.999999747378752e-05
2.381778358540032e-05,1.0,0.4616902768611908,0.9404444694519043,9.999999747378752e-05
3.836461473838426e-05,1.0,0.4620637893676758,0.9402222037315369,9.999999747378752e-05
1.8307562640984543e-05,1.0,0.4615718424320221,0.9402222037315369,9.999999747378752e-05
6.534321437356994e-05,1.0,0.4621548354625702,0.9402222037315369,9.999999747378752e-05
2.4717284759390168e-05,1.0,0.46196767687797546,0.9404444694519043,9.999999747378752e-05
1.693823651294224e-05,1.0,0.46195632219314575,0.9404444694519043,9.999999747378752e-05
1.841583798523061e-05,1.0,0.4622097909450531,0.9404444694519043,9.999999747378752e-05
9.981048060581088e-05,1.0,0.45854488015174866,0.9393333196640015,9.999999747378752e-05
2.428672269161325e-05,1.0,0.45748454332351685,0.9391111135482788,9.999999747378752e-05
2.4850982299540192e-05,1.0,0.45737576484680176,0.9391111135482788,9.999999747378752e-05
2.1898345949011855e-05,1.0,0.4576849937438965,0.9391111135482788,9.999999747378752e-05
1.87209589057602e-05,1.0,0.4583086371421814,0.9391111135482788,9.999999747378752e-05
2.0244342522346415e-05,1.0,0.45920464396476746,0.9395555257797241,9.999999747378752e-05
1.5792542399140075e-05,1.0,0.45989885926246643,0.9397777915000916,9.999999747378752e-05
2.2505906599690206e-05,1.0,0.460351824760437,0.9399999976158142,9.999999747378752e-05
1.730163421598263e-05,1.0,0.46074751019477844,0.9402222037315369,9.999999747378752e-05
2.5159486540360376e-05,1.0,0.4610172510147095,0.9402222037315369,9.999999747378752e-05
2.8325497623882256e-05,1.0,0.46112972497940063,0.9399999976158142,9.999999747378752e-05
2.046031477220822e-05,1.0,0.4615348279476166,0.9399999976158142,9.999999747378752e-05
3.138430474791676e-05,1.0,0.4619569182395935,0.9399999976158142,9.999999747378752e-05
1.8723234461504035e-05,1.0,0.46238845586776733,0.9399999976158142,9.999999747378752e-05
4.587068178807385e-05,1.0,0.46236398816108704,0.9399999976158142,9.999999747378752e-05
1.7970365661312826e-05,1.0,0.4623783230781555,0.9399999976158142,9.999999747378752e-05
2.676939584489446e-05,1.0,0.46250927448272705,0.9402222037315369,9.999999747378752e-05
2.7040743589168414e-05,1.0,0.46259286999702454,0.9399999976158142,9.999999747378752e-05
1.2475611583795398e-05,1.0,0.46258974075317383,0.9395555257797241,9.999999747378752e-05
3.190049028489739e-05,1.0,0.46266600489616394,0.9395555257797241,9.999999747378752e-05
4.7214420192176476e-05,1.0,0.46226394176483154,0.9395555257797241,9.999999747378752e-05
1.6024549040594138e-05,1.0,0.46150749921798706,0.9399999976158142,9.999999747378752e-05
3.369973273947835e-05,1.0,0.4609372317790985,0.9399999976158142,9.999999747378752e-05
2.0197265257593244e-05,1.0,0.4606401324272156,0.9399999976158142,9.999999747378752e-05
2.0058223526575603e-05,1.0,0.46083712577819824,0.9399999976158142,9.999999747378752e-05
2.0434907128219493e-05,1.0,0.4611573815345764,0.9399999976158142,9.999999747378752e-05
1.9303617591504008e-05,1.0,0.46180978417396545,0.9399999976158142,9.999999747378752e-05
3.608988845371641e-05,1.0,0.46245312690734863,0.9402222037315369,9.999999747378752e-05
2.5082814318011515e-05,1.0,0.4622735381126404,0.9399999976158142,9.999999747378752e-05
2.4106593627948314e-05,1.0,0.46255257725715637,0.9399999976158142,9.999999747378752e-05
3.264897895860486e-05,1.0,0.46300679445266724,0.9399999976158142,9.999999747378752e-05
3.244572508265264e-05,1.0,0.4629010558128357,0.9399999976158142,9.999999747378752e-05
2.5915347578120418e-05,1.0,0.4631696045398712,0.9399999976158142,9.999999747378752e-05
2.9451921363943256e-05,1.0,0.4631350338459015,0.9399999976158142,9.999999747378752e-05
2.1047766495030373e-05,1.0,0.4635092318058014,0.9399999976158142,9.999999747378752e-05
3.33574389514979e-05,1.0,0.46350136399269104,0.9402222037315369,9.999999747378752e-05
2.377380405960139e-05,1.0,0.46377184987068176,0.9402222037315369,9.999999747378752e-05
1.8553328118287027e-05,1.0,0.46430185437202454,0.9404444694519043,9.999999747378752e-05
4.889826595899649e-05,1.0,0.46348756551742554,0.9404444694519043,9.999999747378752e-05
2.5322826331830584e-05,1.0,0.46391361951828003,0.9404444694519043,9.999999747378752e-05
2.8108346668886952e-05,1.0,0.4640868008136749,0.9402222037315369,9.999999747378752e-05
1.7051523172995076e-05,1.0,0.4636397659778595,0.9402222037315369,9.999999747378752e-05
1.7273805497097783e-05,1.0,0.46362924575805664,0.9404444694519043,9.999999747378752e-05
3.8849946577101946e-05,1.0,0.4640463888645172,0.9404444694519043,9.999999747378752e-05
2.2373369574779645e-05,1.0,0.4645134508609772,0.9408888816833496,9.999999747378752e-05
3.3724394597811624e-05,1.0,0.4651128947734833,0.9411110877990723,9.999999747378752e-05
4.7234399971785024e-05,1.0,0.4656757712364197,0.940666675567627,9.999999747378752e-05
2.0987716197851114e-05,1.0,0.4662742018699646,0.940666675567627,9.999999747378752e-05
1.8771152099361643e-05,1.0,0.46642550826072693,0.940666675567627,9.999999747378752e-05
3.064624252147041e-05,1.0,0.46590864658355713,0.940666675567627,9.999999747378752e-05
1.4996272511780262e-05,1.0,0.4656156599521637,0.9404444694519043,9.999999747378752e-05
1.6046969903982244e-05,1.0,0.46534380316734314,0.940666675567627,9.999999747378752e-05
2.1671072317985818e-05,1.0,0.46544238924980164,0.940666675567627,9.999999747378752e-05
2.0621353542082943e-05,1.0,0.46540015935897827,0.940666675567627,9.999999747378752e-05
1.4634661056334153e-05,1.0,0.4655986726284027,0.940666675567627,9.999999747378752e-05
2.1244992240099236e-05,1.0,0.4656464159488678,0.940666675567627,9.999999747378752e-05
2.0864465113845654e-05,1.0,0.46600204706192017,0.940666675567627,9.999999747378752e-05
2.4179227693821304e-05,1.0,0.46598583459854126,0.940666675567627,9.999999747378752e-05
1.2382189197523985e-05,1.0,0.46596407890319824,0.940666675567627,9.999999747378752e-05
1.3920122000854462e-05,1.0,0.46582499146461487,0.940666675567627,9.999999747378752e-05
1.6798936485429294e-05,1.0,0.4659668505191803,0.940666675567627,9.999999747378752e-05
4.04281381634064e-05,1.0,0.4667353630065918,0.940666675567627,9.999999747378752e-05
2.0114910512347706e-05,1.0,0.46691668033599854,0.940666675567627,9.999999747378752e-05
4.18727686337661e-05,1.0,0.46632474660873413,0.940666675567627,9.999999747378752e-05
1.9510865968186408e-05,1.0,0.4658510088920593,0.9408888816833496,9.999999747378752e-05
1.940253423526883e-05,1.0,0.4664618670940399,0.9408888816833496,9.999999747378752e-05
1.6738626072765328e-05,1.0,0.466656893491745,0.940666675567627,9.999999747378752e-05
2.290076736244373e-05,1.0,0.4666285216808319,0.940666675567627,9.999999747378752e-05
3.578594987629913e-05,1.0,0.46675780415534973,0.940666675567627,9.999999747378752e-05
1.0673478755052201e-05,1.0,0.4669778048992157,0.940666675567627,9.999999747378752e-05
1.5067242202349007e-05,1.0,0.46722742915153503,0.9404444694519043,9.999999747378752e-05
2.5574894607416354e-05,1.0,0.46685323119163513,0.9404444694519043,9.999999747378752e-05
2.5020279281307012e-05,1.0,0.4663848280906677,0.940666675567627,9.999999747378752e-05
1.576042086526286e-05,1.0,0.4663120210170746,0.9402222037315369,9.999999747378752e-05
2.3584087102790363e-05,1.0,0.4661965072154999,0.9404444694519043,9.999999747378752e-05
3.0208380849217065e-05,1.0,0.46688053011894226,0.940666675567627,9.999999747378752e-05
1.3935184142610524e-05,1.0,0.4676670432090759,0.940666675567627,9.999999747378752e-05
1.0377888429502491e-05,1.0,0.4680497646331787,0.940666675567627,9.999999747378752e-05
2.603786015242804e-05,1.0,0.46830496191978455,0.940666675567627,9.999999747378752e-05
1.1396617082937155e-05,1.0,0.46828657388687134,0.9404444694519043,9.999999747378752e-05
3.265534178353846e-05,1.0,0.4682878255844116,0.9404444694519043,9.999999747378752e-05
1.5989597159205005e-05,1.0,0.46811994910240173,0.9402222037315369,9.999999747378752e-05
7.763466419419274e-05,1.0,0.46773773431777954,0.9402222037315369,9.999999747378752e-05
1.28646124721854e-05,1.0,0.46482980251312256,0.9397777915000916,9.999999747378752e-05
2.0125600713072345e-05,1.0,0.4638018012046814,0.9395555257797241,9.999999747378752e-05
3.1523384677711874e-05,1.0,0.4640168249607086,0.9404444694519043,9.999999747378752e-05
2.432241672067903e-05,1.0,0.4652552604675293,0.9408888816833496,9.999999747378752e-05
2.4256640244857408e-05,1.0,0.46656569838523865,0.9408888816833496,9.999999747378752e-05
1.9867653463734314e-05,1.0,0.4672774374485016,0.940666675567627,9.999999747378752e-05
1.6964124370133504e-05,1.0,0.4669293165206909,0.940666675567627,9.999999747378752e-05
2.0900311938021332e-05,1.0,0.4669771194458008,0.940666675567627,9.999999747378752e-05
1.1547168469405733e-05,1.0,0.4669729769229889,0.940666675567627,9.999999747378752e-05
3.7464593333425e-05,1.0,0.46625617146492004,0.940666675567627,9.999999747378752e-05
2.4102151655824855e-05,1.0,0.46566709876060486,0.940666675567627,9.999999747378752e-05
2.3767013772157952e-05,1.0,0.46585339307785034,0.940666675567627,9.999999747378752e-05
2.0152872821199708e-05,1.0,0.4663226902484894,0.940666675567627,9.999999747378752e-05
1.645538395678159e-05,1.0,0.466472864151001,0.940666675567627,9.999999747378752e-05
1.8440045096212998e-05,1.0,0.4670601785182953,0.940666675567627,9.999999747378752e-05
3.0590210371883586e-05,1.0,0.4671834409236908,0.940666675567627,9.999999747378752e-05
3.600923446356319e-05,1.0,0.4653128385543823,0.9408888816833496,9.999999747378752e-05
2.856900027836673e-05,1.0,0.4650258719921112,0.9408888816833496,9.999999747378752e-05
1.4848623322905041e-05,1.0,0.46484076976776123,0.9408888816833496,9.999999747378752e-05
1.5059637917147484e-05,1.0,0.4647875428199768,0.9408888816833496,9.999999747378752e-05
1.752088610373903e-05,1.0,0.4647953510284424,0.9408888816833496,9.999999747378752e-05
1.161634372692788e-05,1.0,0.4653851389884949,0.9408888816833496,9.999999747378752e-05
1.4208617358235642e-05,1.0,0.46582698822021484,0.9408888816833496,9.999999747378752e-05
1.5591333067277446e-05,1.0,0.4663153886795044,0.9408888816833496,9.999999747378752e-05
2.1976793505018577e-05,1.0,0.467105895280838,0.9408888816833496,9.999999747378752e-05
1.6288266124320216e-05,1.0,0.4683881402015686,0.9408888816833496,9.999999747378752e-05
1.6384821719839238e-05,1.0,0.4691437780857086,0.9411110877990723,9.999999747378752e-05
1.557284667796921e-05,1.0,0.4697279632091522,0.9411110877990723,9.999999747378752e-05
1.210045775223989e-05,1.0,0.4695886969566345,0.9408888816833496,9.999999747378752e-05
2.3212391170090996e-05,1.0,0.46895650029182434,0.9408888816833496,9.999999747378752e-05
1.5074377188284416e-05,1.0,0.468690425157547,0.9408888816833496,9.999999747378752e-05
1.405901821271982e-05,1.0,0.4689759612083435,0.9408888816833496,9.999999747378752e-05
1.8854643712984398e-05,1.0,0.4696633517742157,0.9408888816833496,9.999999747378752e-05
1.9391092791920528e-05,1.0,0.4696573317050934,0.9408888816833496,9.999999747378752e-05
2.8369999199640006e-05,1.0,0.4685380756855011,0.9408888816833496,9.999999747378752e-05
2.0707184376078658e-05,1.0,0.46944600343704224,0.9408888816833496,9.999999747378752e-05
2.870635398721788e-05,1.0,0.4695110023021698,0.9408888816833496,9.999999747378752e-05
1.300216081290273e-05,1.0,0.4692133367061615,0.940666675567627,9.999999747378752e-05
3.020263284270186e-05,1.0,0.4695952832698822,0.940666675567627,9.999999747378752e-05
1.692798286967445e-05,1.0,0.47019752860069275,0.940666675567627,9.999999747378752e-05
1.781782520993147e-05,1.0,0.4710012376308441,0.9404444694519043,9.999999747378752e-05
2.435696660540998e-05,1.0,0.4712032377719879,0.9402222037315369,9.999999747378752e-05
1.954852086782921e-05,1.0,0.47132208943367004,0.9404444694519043,9.999999747378752e-05
1.4895277672621887e-05,1.0,0.4713261127471924,0.940666675567627,9.999999747378752e-05
1.482321931689512e-05,1.0,0.4708287715911865,0.9404444694519043,9.999999747378752e-05
4.662769424612634e-05,1.0,0.4699256122112274,0.9411110877990723,9.999999747378752e-05
1.9821816749754362e-05,1.0,0.46971315145492554,0.9411110877990723,9.999999747378752e-05
1.8291635569767095e-05,1.0,0.4693102240562439,0.940666675567627,9.999999747378752e-05
1.8951292076963e-05,1.0,0.469016969203949,0.9399999976158142,9.999999747378752e-05
1.5348015949712135e-05,1.0,0.46933263540267944,0.9399999976158142,9.999999747378752e-05
1.9637702280306257e-05,1.0,0.4701809883117676,0.9399999976158142,9.999999747378752e-05
1.1797226761700585e-05,1.0,0.47043490409851074,0.9402222037315369,9.999999747378752e-05
1.1431340681156144e-05,1.0,0.4705718457698822,0.9399999976158142,9.999999747378752e-05
2.4148757802322507e-05,1.0,0.47106677293777466,0.9399999976158142,9.999999747378752e-05
1.072714167094091e-05,1.0,0.47130534052848816,0.9399999976158142,9.999999747378752e-05
1.6236490409937687e-05,1.0,0.4716625511646271,0.9395555257797241,9.999999747378752e-05
1.701117435004562e-05,1.0,0.4719260036945343,0.9397777915000916,9.999999747378752e-05
1.9522211005096324e-05,1.0,0.47249141335487366,0.9399999976158142,9.999999747378752e-05
1.9841410903609358e-05,1.0,0.47186166048049927,0.9397777915000916,9.999999747378752e-05
2.7337724532117136e-05,1.0,0.4715566337108612,0.9397777915000916,9.999999747378752e-05
1.683446316746995e-05,1.0,0.4717694818973541,0.9395555257797241,9.999999747378752e-05
1.7759413822204806e-05,1.0,0.47190406918525696,0.9395555257797241,9.999999747378752e-05
9.788286661205348e-06,1.0,0.4721391201019287,0.9395555257797241,9.999999747378752e-05
1.7621056031202897e-05,1.0,0.47223252058029175,0.9397777915000916,9.999999747378752e-05
1.7520995243103243e-05,1.0,0.4722846746444702,0.9399999976158142,9.999999747378752e-05
1.4273921806307044e-05,1.0,0.47212907671928406,0.9399999976158142,9.999999747378752e-05
2.0133622456341982e-05,1.0,0.47186213731765747,0.9402222037315369,9.999999747378752e-05
1.2461238839023281e-05,1.0,0.4718795120716095,0.9399999976158142,9.999999747378752e-05
1.3043516446487047e-05,1.0,0.47211816906929016,0.9402222037315369,9.999999747378752e-05
1.1295060176053084e-05,1.0,0.4724791646003723,0.9402222037315369,9.999999747378752e-05
1.5563578926958144e-05,1.0,0.4728947579860687,0.9404444694519043,9.999999747378752e-05
1.695974606263917e-05,1.0,0.4725256562232971,0.9399999976158142,9.999999747378752e-05
1.623453135835007e-05,1.0,0.47280946373939514,0.9402222037315369,9.999999747378752e-05
1.4937363630451728e-05,1.0,0.472981333732605,0.9402222037315369,9.999999747378752e-05
1.0224994184682146e-05,1.0,0.4729406535625458,0.9399999976158142,9.999999747378752e-05
1.2407238500600215e-05,1.0,0.4731048047542572,0.9399999976158142,9.999999747378752e-05
1.793400770111475e-05,1.0,0.47300025820732117,0.9399999976158142,9.999999747378752e-05
2.5784265744732693e-05,1.0,0.4726108908653259,0.9397777915000916,9.999999747378752e-05
1.581402830197476e-05,1.0,0.471738338470459,0.9395555257797241,9.999999747378752e-05
2.7589288947638124e-05,1.0,0.47140398621559143,0.9395555257797241,9.999999747378752e-05
2.7411619157646783e-05,1.0,0.4711461663246155,0.9399999976158142,9.999999747378752e-05
1.1138695299450774e-05,1.0,0.4717508554458618,0.940666675567627,9.999999747378752e-05
1.0481277058715932e-05,1.0,0.47210660576820374,0.940666675567627,9.999999747378752e-05
1.07878231574432e-05,1.0,0.4721633493900299,0.940666675567627,9.999999747378752e-05
2.366334229009226e-05,1.0,0.47203999757766724,0.940666675567627,9.999999747378752e-05
2.440882417431567e-05,1.0,0.47132307291030884,0.940666675567627,9.999999747378752e-05
1.278682793781627e-05,1.0,0.47073301672935486,0.940666675567627,9.999999747378752e-05
1.3819882951793261e-05,1.0,0.4707365930080414,0.940666675567627,9.999999747378752e-05
1.7795224266592413e-05,1.0,0.4707469046115875,0.9404444694519043,9.999999747378752e-05
2.0792904251720756e-05,1.0,0.47101449966430664,0.9404444694519043,9.999999747378752e-05
1.1474054190330207e-05,1.0,0.47153592109680176,0.940666675567627,9.999999747378752e-05
1.753054493747186e-05,1.0,0.47197777032852173,0.940666675567627,9.999999747378752e-05
1.2255793990334496e-05,1.0,0.47267773747444153,0.940666675567627,9.999999747378752e-05
1.1432353858253919e-05,1.0,0.4731220304965973,0.9408888816833496,9.999999747378752e-05
2.7413887437433004e-05,1.0,0.4722481071949005,0.9397777915000916,9.999999747378752e-05
1.6860973119037226e-05,1.0,0.4712862968444824,0.9388889074325562,9.999999747378752e-05
1.8981801986228675e-05,1.0,0.4716174006462097,0.9386666417121887,9.999999747378752e-05
2.2104653908172622e-05,1.0,0.4716913402080536,0.9391111135482788,9.999999747378752e-05
1.2214551134093199e-05,1.0,0.47263041138648987,0.9402222037315369,9.999999747378752e-05
4.021836139145307e-05,1.0,0.47298404574394226,0.940666675567627,9.999999747378752e-05
1.461870033381274e-05,1.0,0.4720882177352905,0.9411110877990723,9.999999747378752e-05
1.9542254449333996e-05,1.0,0.47143620252609253,0.9411110877990723,9.999999747378752e-05
1.970370976778213e-05,1.0,0.4713622033596039,0.9413333535194397,9.999999747378752e-05
1.2822679309465457e-05,1.0,0.4714689254760742,0.9413333535194397,9.999999747378752e-05
1.639664696995169e-05,1.0,0.4717163145542145,0.9413333535194397,9.999999747378752e-05
1.3652417692355812e-05,1.0,0.47149431705474854,0.9413333535194397,9.999999747378752e-05
1.0682600986910984e-05,1.0,0.4711041748523712,0.9413333535194397,9.999999747378752e-05
0.00010647867020452395,1.0,0.469119131565094,0.9377777576446533,9.999999747378752e-05
0.0002907590242102742,1.0,0.5303477048873901,0.9457777738571167,9.999999747378752e-05
0.018011216074228287,0.9919999837875366,0.5114736557006836,0.9424444437026978,9.999999747378752e-05
0.01006654929369688,0.9980000257492065,0.699492335319519,0.9419999718666077,9.999999747378752e-05
0.007786122616380453,0.9959999918937683,0.7252914905548096,0.9397777915000916,9.999999747378752e-05
0.004366087727248669,1.0,0.6187683939933777,0.9300000071525574,9.999999747378752e-05
0.008518913760781288,0.9980000257492065,0.5812325477600098,0.9382222294807434,9.999999747378752e-05
0.003194114426150918,1.0,0.5684678554534912,0.9391111135482788,9.999999747378752e-05
0.008620518259704113,0.9959999918937683,0.5207949876785278,0.9346666932106018,9.999999747378752e-05
0.009208932518959045,0.9980000257492065,0.45586973428726196,0.9124444723129272,9.999999747378752e-05
0.024459825828671455,0.9900000095367432,0.5078901648521423,0.9386666417121887,9.999999747378752e-05
0.015766551718115807,0.9940000176429749,0.5451903939247131,0.9313333630561829,9.999999747378752e-05
0.0023436653427779675,1.0,0.5319392085075378,0.9222221970558167,9.999999747378752e-05
0.012567747384309769,0.9959999918937683,0.5349873304367065,0.9171110987663269,9.999999747378752e-05
0.0022688850294798613,1.0,0.5757505893707275,0.9386666417121887,9.999999747378752e-05
0.0013753887033089995,1.0,0.6218085289001465,0.9380000233650208,9.999999747378752e-05
0.0014106197049841285,1.0,0.5831471681594849,0.9397777915000916,9.999999747378752e-05
0.0004224729782436043,1.0,0.5441014766693115,0.9368888735771179,9.999999747378752e-05
0.0003826032916549593,1.0,0.5228298306465149,0.9337777495384216,9.999999747378752e-05
0.00023412230075336993,1.0,0.5094870924949646,0.9337777495384216,9.999999747378752e-05
0.00021494206157512963,1.0,0.500089704990387,0.9317777752876282,9.999999747378752e-05
0.0002579683787189424,1.0,0.49233582615852356,0.9315555691719055,9.999999747378752e-05
0.0001834322465583682,1.0,0.48572802543640137,0.9313333630561829,9.999999747378752e-05
0.00022677265224047005,1.0,0.4790506660938263,0.9311110973358154,9.999999747378752e-05
0.00013814581325277686,1.0,0.47446051239967346,0.9315555691719055,9.999999747378752e-05
0.00029511796310544014,1.0,0.47002974152565,0.9315555691719055,9.999999747378752e-05
0.00013475054583977908,1.0,0.46672895550727844,0.9315555691719055,9.999999747378752e-05
0.0001769834489095956,1.0,0.4639787971973419,0.9319999814033508,9.999999747378752e-05
0.0002753255539573729,1.0,0.46123507618904114,0.9328888654708862,9.999999747378752e-05
0.0001895670429803431,1.0,0.4588126540184021,0.9328888654708862,9.999999747378752e-05
0.00019020996114704758,1.0,0.45641136169433594,0.9328888654708862,9.999999747378752e-05
0.0001637127425055951,1.0,0.4549345374107361,0.9328888654708862,9.999999747378752e-05
0.00018320803064852953,1.0,0.4535680115222931,0.933555543422699,9.999999747378752e-05
0.0002210085076512769,1.0,0.45228856801986694,0.933555543422699,9.999999747378752e-05
0.0001607120648259297,1.0,0.4509565532207489,0.9340000152587891,9.999999747378752e-05
0.0001361333270324394,1.0,0.4504430592060089,0.9340000152587891,9.999999747378752e-05
0.0003558566968422383,1.0,0.44909313321113586,0.9337777495384216,9.999999747378752e-05
0.0001518026110716164,1.0,0.44800955057144165,0.9331111311912537,9.999999747378752e-05
0.00013155491615179926,1.0,0.44771477580070496,0.9328888654708862,9.999999747378752e-05
0.0002741256612353027,1.0,0.4464849829673767,0.9328888654708862,9.999999747378752e-05
8.518611139152199e-05,1.0,0.4457983076572418,0.933555543422699,9.999999747378752e-05
0.00015117299335543066,1.0,0.4454241693019867,0.9342222213745117,9.999999747378752e-05
0.0001392508711433038,1.0,0.4452301263809204,0.9344444274902344,9.999999747378752e-05
9.427133045392111e-05,1.0,0.4459206759929657,0.9348888993263245,9.999999747378752e-05
0.00010148802539333701,1.0,0.44639962911605835,0.9357777833938599,9.999999747378752e-05
0.00010791061504278332,1.0,0.4470355212688446,0.9366666674613953,9.999999747378752e-05
0.00011555957462405786,1.0,0.44777411222457886,0.937333345413208,9.999999747378752e-05
0.0001656530366744846,1.0,0.44835659861564636,0.937333345413208,9.999999747378752e-05
9.286672866437584e-05,1.0,0.4483434855937958,0.937333345413208,9.999999747378752e-05
0.0001141388711403124,1.0,0.4482365548610687,0.937333345413208,9.999999747378752e-05
9.510415839031339e-05,1.0,0.44854554533958435,0.937333345413208,9.999999747378752e-05
0.00010308024502592161,1.0,0.4492587745189667,0.937333345413208,9.999999747378752e-05
8.172378147719428e-05,1.0,0.4499155580997467,0.9382222294807434,9.999999747378752e-05
0.00018096854910254478,1.0,0.45064640045166016,0.9382222294807434,9.999999747378752e-05
0.00012288264406379312,1.0,0.4513012170791626,0.9382222294807434,9.999999747378752e-05
7.029352127574384e-05,1.0,0.45189332962036133,0.9375555515289307,9.999999747378752e-05
0.0002643386833369732,1.0,0.4536333680152893,0.9377777576446533,9.999999747378752e-05
0.00013367699284572154,1.0,0.4544766843318939,0.9382222294807434,9.999999747378752e-05
0.00014030234888195992,1.0,0.45424413681030273,0.9380000233650208,9.999999747378752e-05
6.591158307855949e-05,1.0,0.45432376861572266,0.9375555515289307,9.999999747378752e-05
0.00010359189036535099,1.0,0.4549406170845032,0.9377777576446533,9.999999747378752e-05
0.00010985154949594289,1.0,0.4552687108516693,0.9380000233650208,9.999999747378752e-05
0.00010780114098452032,1.0,0.4551738202571869,0.9380000233650208,9.999999747378752e-05
0.00010880968329729512,1.0,0.4555315673351288,0.9382222294807434,9.999999747378752e-05
0.0001097737331292592,1.0,0.4557853639125824,0.9382222294807434,9.999999747378752e-05
8.320953929796815e-05,1.0,0.4564056396484375,0.9388889074325562,9.999999747378752e-05
0.00015466591867152601,1.0,0.4570845663547516,0.9393333196640015,9.999999747378752e-05
4.3599793571047485e-05,1.0,0.4579910933971405,0.9391111135482788,9.999999747378752e-05
0.00011251887917751446,1.0,0.4589798152446747,0.9391111135482788,9.999999747378752e-05
6.706604472128674e-05,1.0,0.4597543478012085,0.9391111135482788,9.999999747378752e-05
6.0194033721927553e-05,1.0,0.4599398970603943,0.9391111135482788,9.999999747378752e-05
6.783854041714221e-05,1.0,0.46045631170272827,0.9388889074325562,9.999999747378752e-05
0.00011062125850003213,1.0,0.46039560437202454,0.9391111135482788,9.999999747378752e-05
6.807000318076462e-05,1.0,0.45999348163604736,0.9391111135482788,9.999999747378752e-05
6.290414603427052e-05,1.0,0.45984870195388794,0.9391111135482788,9.999999747378752e-05
6.601969653274864e-05,1.0,0.4600943326950073,0.9391111135482788,9.999999747378752e-05
0.00011045993596781045,1.0,0.4602541923522949,0.9388889074325562,9.999999747378752e-05
7.180937973316759e-05,1.0,0.4603809714317322,0.9384444355964661,9.999999747378752e-05
5.8615645684767514e-05,1.0,0.46069803833961487,0.9384444355964661,9.999999747378752e-05
0.00012729944137390703,1.0,0.46167436242103577,0.9386666417121887,9.999999747378752e-05
0.00014734889555256814,1.0,0.46272557973861694,0.9388889074325562,9.999999747378752e-05
0.00010638991807354614,1.0,0.46245822310447693,0.9391111135482788,9.999999747378752e-05
7.233193900901824e-05,1.0,0.46076133847236633,0.9391111135482788,9.999999747378752e-05
0.0001382831105729565,1.0,0.4599865972995758,0.9386666417121887,9.999999747378752e-05
6.756601214874536e-05,1.0,0.4573694169521332,0.9366666674613953,9.999999747378752e-05
4.5809785660821944e-05,1.0,0.45708680152893066,0.9359999895095825,9.999999747378752e-05
4.4928223360329866e-05,1.0,0.45760178565979004,0.9357777833938599,9.999999747378752e-05
6.129916437203065e-05,1.0,0.45847633481025696,0.9359999895095825,9.999999747378752e-05
0.00010134600597666577,1.0,0.45856785774230957,0.9366666674613953,9.999999747378752e-05
9.949236118700355e-05,1.0,0.45931145548820496,0.9371111392974854,9.999999747378752e-05
6.323627167148516e-05,1.0,0.4599858820438385,0.937333345413208,9.999999747378752e-05
0.00011757064930861816,1.0,0.4609454274177551,0.937333345413208,9.999999747378752e-05
6.004597162245773e-05,1.0,0.46156683564186096,0.9377777576446533,9.999999747378752e-05
5.6444645451847464e-05,1.0,0.46251046657562256,0.9377777576446533,9.999999747378752e-05
5.091947241453454e-05,1.0,0.4632830321788788,0.9382222294807434,9.999999747378752e-05
4.576783976517618e-05,1.0,0.463932067155838,0.9380000233650208,9.999999747378752e-05
6.346809823298827e-05,1.0,0.46455538272857666,0.9380000233650208,9.999999747378752e-05
5.63172870897688e-05,1.0,0.46525076031684875,0.9377777576446533,9.999999747378752e-05
0.00011304319195915014,1.0,0.4659563899040222,0.9380000233650208,9.999999747378752e-05
3.640973591245711e-05,1.0,0.46618396043777466,0.9386666417121887,9.999999747378752e-05
5.1052196795353666e-05,1.0,0.4666402339935303,0.9384444355964661,9.999999747378752e-05
6.709734589094296e-05,1.0,0.46683013439178467,0.9377777576446533,9.999999747378752e-05
6.674674659734592e-05,1.0,0.46711376309394836,0.9377777576446533,9.999999747378752e-05
4.976308991899714e-05,1.0,0.46692633628845215,0.9384444355964661,9.999999747378752e-05
6.124264473328367e-05,1.0,0.46709346771240234,0.9380000233650208,9.999999747378752e-05
0.00013405445497483015,1.0,0.46715354919433594,0.9384444355964661,9.999999747378752e-05
8.462095865979791e-05,1.0,0.46669942140579224,0.9386666417121887,9.999999747378752e-05
9.237621270585805e-05,1.0,0.46704724431037903,0.9386666417121887,9.999999747378752e-05
6.078005753806792e-05,1.0,0.46798697113990784,0.9388889074325562,9.999999747378752e-05
3.270270099164918e-05,1.0,0.46875694394111633,0.9388889074325562,9.999999747378752e-05
0.0001303928147535771,1.0,0.4694083631038666,0.9388889074325562,9.999999747378752e-05
0.00013776656123809516,1.0,0.47044748067855835,0.9384444355964661,9.999999747378752e-05
4.00538083340507e-05,1.0,0.47124120593070984,0.9384444355964661,9.999999747378752e-05
4.213569627609104e-05,1.0,0.4717305302619934,0.9382222294807434,9.999999747378752e-05
5.6336641137022525e-05,1.0,0.4720405340194702,0.9382222294807434,9.999999747378752e-05
4.594830534188077e-05,1.0,0.4722932279109955,0.9382222294807434,9.999999747378752e-05
3.018925417563878e-05,1.0,0.47257959842681885,0.9377777576446533,9.999999747378752e-05
4.0251881728181615e-05,1.0,0.47286832332611084,0.9377777576446533,9.999999747378752e-05
6.090769238653593e-05,1.0,0.47315219044685364,0.9377777576446533,9.999999747378752e-05
2.6619025447871536e-05,1.0,0.47321316599845886,0.9380000233650208,9.999999747378752e-05
4.3896405259147286e-05,1.0,0.47336187958717346,0.9380000233650208,9.999999747378752e-05
3.172270953655243e-05,1.0,0.4735492765903473,0.9380000233650208,9.999999747378752e-05
5.934708678978495e-05,1.0,0.4739184081554413,0.9380000233650208,9.999999747378752e-05
4.277485277270898e-05,1.0,0.4743194878101349,0.9380000233650208,9.999999747378752e-05
3.156991442665458e-05,1.0,0.4745337963104248,0.9380000233650208,9.999999747378752e-05
9.451758523937315e-05,1.0,0.4747815728187561,0.9380000233650208,9.999999747378752e-05
9.652037260821089e-05,1.0,0.4745013117790222,0.9382222294807434,9.999999747378752e-05
4.326031557866372e-05,1.0,0.4741489887237549,0.9380000233650208,9.999999747378752e-05
4.2204424971714616e-05,1.0,0.47425058484077454,0.9377777576446533,9.999999747378752e-05
4.413561327964999e-05,1.0,0.474325567483902,0.9377777576446533,9.999999747378752e-05
4.9053509428631514e-05,1.0,0.4744318723678589,0.9375555515289307,9.999999747378752e-05
3.6853736673947424e-05,1.0,0.47454357147216797,0.9375555515289307,9.999999747378752e-05
0.0001787579240044579,1.0,0.47374337911605835,0.9366666674613953,9.999999747378752e-05
3.346771700307727e-05,1.0,0.472025603055954,0.9359999895095825,9.999999747378752e-05
6.297506479313597e-05,1.0,0.47169873118400574,0.9355555772781372,9.999999747378752e-05
3.696035491884686e-05,1.0,0.4718994200229645,0.9357777833938599,9.999999747378752e-05
3.511342947604135e-05,1.0,0.47241389751434326,0.9357777833938599,9.999999747378752e-05
4.5769018470309675e-05,1.0,0.4728408753871918,0.9359999895095825,9.999999747378752e-05
3.137419844279066e-05,1.0,0.47323980927467346,0.9362221956253052,9.999999747378752e-05
7.036334136500955e-05,1.0,0.47363048791885376,0.9359999895095825,9.999999747378752e-05
5.71670061617624e-05,1.0,0.47372791171073914,0.9359999895095825,9.999999747378752e-05
4.553933104034513e-05,1.0,0.4740954339504242,0.9359999895095825,9.999999747378752e-05
4.597989754984155e-05,1.0,0.47450774908065796,0.9364444613456726,9.999999747378752e-05
3.5312135878484696e-05,1.0,0.4749050438404083,0.9368888735771179,9.999999747378752e-05
2.885130925278645e-05,1.0,0.4753677248954773,0.9368888735771179,9.999999747378752e-05
6.93361071171239e-05,1.0,0.4756017327308655,0.9368888735771179,9.999999747378752e-05
3.983918213634752e-05,1.0,0.47590452432632446,0.9368888735771179,9.999999747378752e-05
6.008379932609387e-05,1.0,0.4765741229057312,0.9366666674613953,9.999999747378752e-05
7.338597788475454e-05,1.0,0.4775557816028595,0.9371111392974854,9.999999747378752e-05
5.410204903455451e-05,1.0,0.4782247245311737,0.9371111392974854,9.999999747378752e-05
3.918559377780184e-05,1.0,0.4788278043270111,0.9375555515289307,9.999999747378752e-05
0.0002384180697845295,1.0,0.477562814950943,0.9375555515289307,9.999999747378752e-05
3.675291736726649e-05,1.0,0.4751206636428833,0.9377777576446533,9.999999747378752e-05
3.639005444711074e-05,1.0,0.47451767325401306,0.9382222294807434,9.999999747378752e-05
6.295795174082741e-05,1.0,0.4745079278945923,0.9382222294807434,9.999999747378752e-05
3.317383743706159e-05,1.0,0.47490808367729187,0.9382222294807434,9.999999747378752e-05
3.1015555578051135e-05,1.0,0.47534894943237305,0.9382222294807434,9.999999747378752e-05
2.8110411221859977e-05,1.0,0.475888729095459,0.9382222294807434,9.999999747378752e-05
4.136795178055763e-05,1.0,0.4763152599334717,0.9382222294807434,9.999999747378752e-05
2.6249903385178186e-05,1.0,0.47652527689933777,0.9382222294807434,9.999999747378752e-05
3.782732164836489e-05,1.0,0.47666487097740173,0.9384444355964661,9.999999747378752e-05
3.0876453820383176e-05,1.0,0.47683659195899963,0.9384444355964661,9.999999747378752e-05
7.377690053544939e-05,1.0,0.47669461369514465,0.9382222294807434,9.999999747378752e-05
7.404500502161682e-05,1.0,0.4768933355808258,0.9386666417121887,9.999999747378752e-05
5.1603408792288974e-05,1.0,0.47728750109672546,0.9384444355964661,9.999999747378752e-05
2.9324330171220936e-05,1.0,0.47779518365859985,0.9384444355964661,9.999999747378752e-05
1.885400342871435e-05,1.0,0.47831255197525024,0.9384444355964661,9.999999747378752e-05
3.654857573565096e-05,1.0,0.47878846526145935,0.9384444355964661,9.999999747378752e-05
3.155730155413039e-05,1.0,0.47936874628067017,0.9384444355964661,9.999999747378752e-05
3.861872392008081e-05,1.0,0.4798257350921631,0.9386666417121887,9.999999747378752e-05
3.218074925825931e-05,1.0,0.4802476167678833,0.9386666417121887,9.999999747378752e-05
3.3431184419896454e-05,1.0,0.48079371452331543,0.9386666417121887,9.999999747378752e-05
3.4388009225949645e-05,1.0,0.48110735416412354,0.9386666417121887,9.999999747378752e-05
2.3128590328269638e-05,1.0,0.48139095306396484,0.9386666417121887,9.999999747378752e-05
3.238523640902713e-05,1.0,0.4817068576812744,0.9386666417121887,9.999999747378752e-05
3.078896043007262e-05,1.0,0.4820702075958252,0.9386666417121887,9.999999747378752e-05
0.00011161043948959559,1.0,0.4821571707725525,0.9386666417121887,9.999999747378752e-05
4.870843258686364e-05,1.0,0.4807027578353882,0.9386666417121887,9.999999747378752e-05
2.832343670888804e-05,1.0,0.48030513525009155,0.9388889074325562,9.999999747378752e-05
3.723627014551312e-05,1.0,0.48030784726142883,0.9388889074325562,9.999999747378752e-05
3.380034468136728e-05,1.0,0.48040902614593506,0.9391111135482788,9.999999747378752e-05
5.857874566572718e-05,1.0,0.4803215563297272,0.9391111135482788,9.999999747378752e-05
2.446623875584919e-05,1.0,0.4799595773220062,0.9391111135482788,9.999999747378752e-05
3.39415310008917e-05,1.0,0.4797814190387726,0.9391111135482788,9.999999747378752e-05
3.412333899177611e-05,1.0,0.47994858026504517,0.9391111135482788,9.999999747378752e-05
3.909119914169423e-05,1.0,0.4802948236465454,0.9391111135482788,9.999999747378752e-05
5.1358754717512056e-05,1.0,0.48077255487442017,0.9391111135482788,9.999999747378752e-05
2.464602039253805e-05,1.0,0.48134711384773254,0.9391111135482788,9.999999747378752e-05
2.6874473405769095e-05,1.0,0.4818316400051117,0.9391111135482788,9.999999747378752e-05
2.6202547815046273e-05,1.0,0.4819771647453308,0.9391111135482788,9.999999747378752e-05
3.35283693857491e-05,1.0,0.48212653398513794,0.9391111135482788,9.999999747378752e-05
5.982215589028783e-05,1.0,0.48258909583091736,0.9391111135482788,9.999999747378752e-05
3.02596981782699e-05,1.0,0.4827287793159485,0.9391111135482788,9.999999747378752e-05
4.7832403652137145e-05,1.0,0.48328107595443726,0.9393333196640015,9.999999747378752e-05
4.617691593011841e-05,1.0,0.4833690822124481,0.9393333196640015,9.999999747378752e-05
3.882432065438479e-05,1.0,0.48282334208488464,0.9391111135482788,9.999999747378752e-05
4.635215373127721e-05,1.0,0.482404500246048,0.9393333196640015,9.999999747378752e-05
2.7226615202380344e-05,1.0,0.4820050001144409,0.9393333196640015,9.999999747378752e-05
3.6236666346667334e-05,1.0,0.4821029305458069,0.9391111135482788,9.999999747378752e-05
3.344616561662406e-05,1.0,0.4823881983757019,0.9391111135482788,9.999999747378752e-05
6.060685700504109e-05,1.0,0.48312249779701233,0.9388889074325562,9.999999747378752e-05
1.9582714230637066e-05,1.0,0.4839465022087097,0.9388889074325562,9.999999747378752e-05
3.302395634818822e-05,1.0,0.4845123291015625,0.9388889074325562,9.999999747378752e-05
1.9270268239779398e-05,1.0,0.4849112927913666,0.9395555257797241,9.999999747378752e-05
3.645629476523027e-05,1.0,0.48545148968696594,0.9395555257797241,9.999999747378752e-05
2.1180056137382053e-05,1.0,0.4858858585357666,0.9397777915000916,9.999999747378752e-05
2.721665623539593e-05,1.0,0.4862358868122101,0.9397777915000916,9.999999747378752e-05
3.1936382583808154e-05,1.0,0.4864761233329773,0.9397777915000916,9.999999747378752e-05
2.1337042198865674e-05,1.0,0.48664170503616333,0.9399999976158142,9.999999747378752e-05
3.2289612136082724e-05,1.0,0.48669856786727905,0.9397777915000916,9.999999747378752e-05
4.570628152578138e-05,1.0,0.4868147373199463,0.9397777915000916,9.999999747378752e-05
2.707157727854792e-05,1.0,0.4870930314064026,0.9395555257797241,9.999999747378752e-05
2.380202931817621e-05,1.0,0.4871845841407776,0.9391111135482788,9.999999747378752e-05
2.4354871129617095e-05,1.0,0.4872458875179291,0.9386666417121887,9.999999747378752e-05
3.529478999553248e-05,1.0,0.48745399713516235,0.9388889074325562,9.999999747378752e-05
5.5216059990925714e-05,1.0,0.4877043068408966,0.9386666417121887,9.999999747378752e-05
2.119604505423922e-05,1.0,0.4879675507545471,0.9386666417121887,9.999999747378752e-05
1.9915951270377263e-05,1.0,0.4882075786590576,0.9388889074325562,9.999999747378752e-05
3.541016121744178e-05,1.0,0.4885671138763428,0.9391111135482788,9.999999747378752e-05
1.778457226464525e-05,1.0,0.48896995186805725,0.9393333196640015,9.999999747378752e-05
2.3973399947863072e-05,1.0,0.4891801178455353,0.9395555257797241,9.999999747378752e-05
1.4766378626518417e-05,1.0,0.4891238212585449,0.9395555257797241,9.999999747378752e-05
2.4040466087171808e-05,1.0,0.48918890953063965,0.9395555257797241,9.999999747378752e-05
5.2657229389296845e-05,1.0,0.4895002841949463,0.9393333196640015,9.999999747378752e-05
3.693974213092588e-05,1.0,0.4897654056549072,0.9393333196640015,9.999999747378752e-05
2.3155387680162676e-05,1.0,0.4901042878627777,0.9386666417121887,9.999999747378752e-05
2.577481063781306e-05,1.0,0.4903220534324646,0.9386666417121887,9.999999747378752e-05
3.386510070413351e-05,1.0,0.49089187383651733,0.9388889074325562,9.999999747378752e-05
6.14546297583729e-05,1.0,0.49114975333213806,0.9388889074325562,9.999999747378752e-05
2.9655973776243627e-05,1.0,0.4910864233970642,0.9386666417121887,9.999999747378752e-05
2.755615241767373e-05,1.0,0.4912678003311157,0.9386666417121887,9.999999747378752e-05
3.699036824400537e-05,1.0,0.49152788519859314,0.9386666417121887,9.999999747378752e-05
2.007842340390198e-05,1.0,0.49167460203170776,0.9386666417121887,9.999999747378752e-05
2.414646041870583e-05,1.0,0.49190428853034973,0.9386666417121887,9.999999747378752e-05
3.306107464595698e-05,1.0,0.4917585849761963,0.9388889074325562,9.999999747378752e-05
2.7770545784733258e-05,1.0,0.49165788292884827,0.9388889074325562,9.999999747378752e-05
1.7441689124098048e-05,1.0,0.49141472578048706,0.9388889074325562,9.999999747378752e-05
2.0798501282115467e-05,1.0,0.4914965331554413,0.9388889074325562,9.999999747378752e-05
2.0436220438568853e-05,1.0,0.49158912897109985,0.9388889074325562,9.999999747378752e-05
3.074253982049413e-05,1.0,0.4920070469379425,0.9388889074325562,9.999999747378752e-05
4.867429015575908e-05,1.0,0.4925127625465393,0.9388889074325562,9.999999747378752e-05
2.2868620362714864e-05,1.0,0.4927951395511627,0.9388889074325562,9.999999747378752e-05
1.471508130634902e-05,1.0,0.49304839968681335,0.9388889074325562,9.999999747378752e-05
1.7618142010178417e-05,1.0,0.49331945180892944,0.9388889074325562,9.999999747378752e-05
2.691886584216263e-05,1.0,0.49346816539764404,0.9388889074325562,9.999999747378752e-05
3.389955963939428e-05,1.0,0.49365338683128357,0.9388889074325562,9.999999747378752e-05
1.2942922694492154e-05,1.0,0.4934934973716736,0.9386666417121887,9.999999747378752e-05
1.6090640201582573e-05,1.0,0.49358686804771423,0.9386666417121887,9.999999747378752e-05
4.128872024011798e-05,1.0,0.493716299533844,0.9386666417121887,9.999999747378752e-05
2.931572453235276e-05,1.0,0.4936287999153137,0.9386666417121887,9.999999747378752e-05
2.7882231734110974e-05,1.0,0.49351632595062256,0.9386666417121887,9.999999747378752e-05
2.267396484967321e-05,1.0,0.4936518669128418,0.9386666417121887,9.999999747378752e-05
2.6248322683386505e-05,1.0,0.4935707449913025,0.9386666417121887,9.999999747378752e-05
0.00014040115638636053,1.0,0.49339842796325684,0.9386666417121887,9.999999747378752e-05
2.0236369891790673e-05,1.0,0.49307796359062195,0.9384444355964661,9.999999747378752e-05
1.9439405150478706e-05,1.0,0.49347513914108276,0.9384444355964661,9.999999747378752e-05
2.208562546002213e-05,1.0,0.4938948452472687,0.9384444355964661,9.999999747378752e-05
1.976247767743189e-05,1.0,0.49406570196151733,0.9391111135482788,9.999999747378752e-05
4.599086969392374e-05,1.0,0.4943997859954834,0.9391111135482788,9.999999747378752e-05
3.5112232581013814e-05,1.0,0.4947820007801056,0.9391111135482788,9.999999747378752e-05
1.47333330460242e-05,1.0,0.49498632550239563,0.9391111135482788,9.999999747378752e-05
2.3368342226604e-05,1.0,0.4952755570411682,0.9391111135482788,9.999999747378752e-05
2.2832446120446548e-05,1.0,0.49550265073776245,0.9391111135482788,9.999999747378752e-05
1.7482761904830113e-05,1.0,0.4957229197025299,0.9388889074325562,9.999999747378752e-05
6.205805402714759e-05,1.0,0.4961497485637665,0.9388889074325562,9.999999747378752e-05
2.6068479201057926e-05,1.0,0.4965627193450928,0.9386666417121887,9.999999747378752e-05
4.1902720113284886e-05,1.0,0.49676382541656494,0.9380000233650208,9.999999747378752e-05
2.368936111452058e-05,1.0,0.4967055022716522,0.9380000233650208,9.999999747378752e-05
2.1125322746229358e-05,1.0,0.4967770576477051,0.9380000233650208,9.999999747378752e-05
1.4608986930397805e-05,1.0,0.49677544832229614,0.9380000233650208,9.999999747378752e-05
2.5024477508850396e-05,1.0,0.49684983491897583,0.9380000233650208,9.999999747378752e-05
1.5685835023759864e-05,1.0,0.4970272481441498,0.9380000233650208,9.999999747378752e-05
3.8526901334989816e-05,1.0,0.4968434274196625,0.9380000233650208,9.999999747378752e-05
2.4746308554313146e-05,1.0,0.49657660722732544,0.9380000233650208,9.999999747378752e-05
4.912106669507921e-05,1.0,0.49651631712913513,0.9380000233650208,9.999999747378752e-05
2.946591303043533e-05,1.0,0.4965035915374756,0.9382222294807434,9.999999747378752e-05
1.4468744666373823e-05,1.0,0.4965595304965973,0.9382222294807434,9.999999747378752e-05
1.5112076653167605e-05,1.0,0.4968695342540741,0.9382222294807434,9.999999747378752e-05
4.047712354804389e-05,1.0,0.49724534153938293,0.9382222294807434,9.999999747378752e-05
1.9677776435855776e-05,1.0,0.4976295530796051,0.9382222294807434,9.999999747378752e-05
2.0523675630101934e-05,1.0,0.49781107902526855,0.9384444355964661,9.999999747378752e-05
1.4665742128272541e-05,1.0,0.4977259635925293,0.9384444355964661,9.999999747378752e-05
2.279028376506176e-05,1.0,0.4978087544441223,0.9386666417121887,9.999999747378752e-05
1.464644810766913e-05,1.0,0.49788227677345276,0.9384444355964661,9.999999747378752e-05
2.0405430404935032e-05,1.0,0.4980826675891876,0.9386666417121887,9.999999747378752e-05
2.5669378374004737e-05,1.0,0.4985320568084717,0.9386666417121887,9.999999747378752e-05
1.2953650184499566e-05,1.0,0.4987295866012573,0.9391111135482788,9.999999747378752e-05
2.0079982277820818e-05,1.0,0.49895796179771423,0.9393333196640015,9.999999747378752e-05
1.3016256161790807e-05,1.0,0.49901384115219116,0.9393333196640015,9.999999747378752e-05
2.4886343453545123e-05,1.0,0.49902838468551636,0.9393333196640015,9.999999747378752e-05
1.3619599485537037e-05,1.0,0.4991553723812103,0.9393333196640015,9.999999747378752e-05
2.7759166187024675e-05,1.0,0.4993414580821991,0.9393333196640015,9.999999747378752e-05
1.6471480194013566e-05,1.0,0.4994889795780182,0.9393333196640015,9.999999747378752e-05
1.2242178854648955e-05,1.0,0.49960270524024963,0.9393333196640015,9.999999747378752e-05
2.491254053893499e-05,1.0,0.49958446621894836,0.9393333196640015,9.999999747378752e-05
3.383221701369621e-05,1.0,0.49877962470054626,0.9391111135482788,9.999999747378752e-05
2.1247587937978096e-05,1.0,0.4985828399658203,0.9388889074325562,9.999999747378752e-05
2.227488403150346e-05,1.0,0.49818283319473267,0.9384444355964661,9.999999747378752e-05
3.3999844163190573e-05,1.0,0.49824559688568115,0.9382222294807434,9.999999747378752e-05
1.741550659062341e-05,1.0,0.49796760082244873,0.9384444355964661,9.999999747378752e-05
1.2409112969180569e-05,1.0,0.49774637818336487,0.9382222294807434,9.999999747378752e-05
1.5526058632531203e-05,1.0,0.49780306220054626,0.9384444355964661,9.999999747378752e-05
1.5629733752575703e-05,1.0,0.49803444743156433,0.9382222294807434,9.999999747378752e-05
2.0852949091931805e-05,1.0,0.4984146058559418,0.9386666417121887,9.999999747378752e-05
4.138566509936936e-05,1.0,0.4985979199409485,0.9386666417121887,9.999999747378752e-05
2.627287176437676e-05,1.0,0.49910807609558105,0.9386666417121887,9.999999747378752e-05
1.231276837643236e-05,1.0,0.4995391070842743,0.9386666417121887,9.999999747378752e-05
1.9385501218494028e-05,1.0,0.5001251101493835,0.9388889074325562,9.999999747378752e-05
1.1114467270090245e-05,1.0,0.5003176927566528,0.9386666417121887,9.999999747378752e-05
1.7240903616766445e-05,1.0,0.5004834532737732,0.9386666417121887,9.999999747378752e-05
1.312179483647924e-05,1.0,0.5006913542747498,0.9386666417121887,9.999999747378752e-05
1.5840552805457264e-05,1.0,0.5008370876312256,0.9386666417121887,9.999999747378752e-05
2.325595596630592e-05,1.0,0.5010290741920471,0.9386666417121887,9.999999747378752e-05
1.4846053090877831e-05,1.0,0.501297116279602,0.9386666417121887,9.999999747378752e-05
1.4989463124948088e-05,1.0,0.5015669465065002,0.9386666417121887,9.999999747378752e-05
1.3363411198952235e-05,1.0,0.5017811059951782,0.9388889074325562,9.999999747378752e-05
1.284360041609034e-05,1.0,0.5018861889839172,0.9388889074325562,9.999999747378752e-05
2.1875732272746973e-05,1.0,0.5019270181655884,0.9388889074325562,9.999999747378752e-05
1.4404821740754414e-05,1.0,0.5013799071311951,0.9382222294807434,9.999999747378752e-05
1.0739667231973726e-05,1.0,0.5012937188148499,0.9382222294807434,9.999999747378752e-05
2.5151892259600572e-05,1.0,0.5013591647148132,0.9382222294807434,9.999999747378752e-05
2.102068356180098e-05,1.0,0.5014827251434326,0.9388889074325562,9.999999747378752e-05
1.0211018889094703e-05,1.0,0.5013664960861206,0.9386666417121887,9.999999747378752e-05
1.0759812539617997e-05,1.0,0.501538872718811,0.9384444355964661,9.999999747378752e-05
1.9443794371909462e-05,1.0,0.5016084909439087,0.9386666417121887,9.999999747378752e-05
2.8371769076329656e-05,1.0,0.5019594430923462,0.9386666417121887,9.999999747378752e-05
1.3529184798244387e-05,1.0,0.502133846282959,0.9386666417121887,9.999999747378752e-05
1.486195014877012e-05,1.0,0.502338171005249,0.9384444355964661,9.999999747378752e-05
3.2201172871282324e-05,1.0,0.5026366114616394,0.9386666417121887,9.999999747378752e-05
1.6876594600034878e-05,1.0,0.5025723576545715,0.9391111135482788,9.999999747378752e-05
1.2917513231514022e-05,1.0,0.5022587180137634,0.9382222294807434,9.999999747378752e-05
1.4897303117322735e-05,1.0,0.5019546151161194,0.9377777576446533,9.999999747378752e-05
1.1987171092187054e-05,1.0,0.5019298195838928,0.9380000233650208,9.999999747378752e-05
1.5264071407727897e-05,1.0,0.5019402503967285,0.9380000233650208,9.999999747378752e-05
2.2772566808271222e-05,1.0,0.5022295117378235,0.9382222294807434,9.999999747378752e-05
1.4956649465602823e-05,1.0,0.5023608803749084,0.9382222294807434,9.999999747378752e-05
1.8230877685709856e-05,1.0,0.5026086568832397,0.9382222294807434,9.999999747378752e-05
2.1119412849657238e-05,1.0,0.5028776526451111,0.9382222294807434,9.999999747378752e-05
1.588798659213353e-05,1.0,0.5032396912574768,0.9382222294807434,9.999999747378752e-05
1.6230886103585362e-05,1.0,0.5036764144897461,0.9386666417121887,9.999999747378752e-05
2.3871192752267234e-05,1.0,0.5042199492454529,0.9388889074325562,9.999999747378752e-05
8.598194654041436e-06,1.0,0.5042751431465149,0.9388889074325562,9.999999747378752e-05
8.326126589963678e-06,1.0,0.5042465329170227,0.9388889074325562,9.999999747378752e-05
7.624673344253097e-06,1.0,0.5042981505393982,0.9388889074325562,9.999999747378752e-05
1.6181338651222177e-05,1.0,0.5044910311698914,0.9386666417121887,9.999999747378752e-05
1.823407001211308e-05,1.0,0.5048500299453735,0.9386666417121887,9.999999747378752e-05
1.9287908799014986e-05,1.0,0.5048918128013611,0.9386666417121887,9.999999747378752e-05
5.054742723586969e-05,1.0,0.5043631196022034,0.9395555257797241,9.999999747378752e-05
8.141980288201012e-06,1.0,0.504041850566864,0.9395555257797241,9.999999747378752e-05
8.669540875416715e-06,1.0,0.504026472568512,0.9395555257797241,9.999999747378752e-05
2.368611421843525e-05,1.0,0.504297137260437,0.9399999976158142,9.999999747378752e-05
1.018526018015109e-05,1.0,0.5042611360549927,0.9399999976158142,9.999999747378752e-05
2.1814168576383963e-05,1.0,0.5044202208518982,0.9402222037315369,9.999999747378752e-05
2.279365435242653e-05,1.0,0.5045925378799438,0.9399999976158142,9.999999747378752e-05
2.0394962120917626e-05,1.0,0.5048063397407532,0.9397777915000916,9.999999747378752e-05
1.1580422324186657e-05,1.0,0.5044640302658081,0.9395555257797241,9.999999747378752e-05
1.3588586625701282e-05,1.0,0.5045232772827148,0.9395555257797241,9.999999747378752e-05
2.9118660677340813e-05,1.0,0.5049172639846802,0.9395555257797241,9.999999747378752e-05
1.281959794141585e-05,1.0,0.5049722790718079,0.9397777915000916,9.999999747378752e-05
2.3125474399421364e-05,1.0,0.5048334002494812,0.9397777915000916,9.999999747378752e-05
2.522753129596822e-05,1.0,0.5054118633270264,0.9399999976158142,9.999999747378752e-05
9.60610941547202e-06,1.0,0.5058434009552002,0.9399999976158142,9.999999747378752e-05
1.818684359022882e-05,1.0,0.5061174035072327,0.9397777915000916,9.999999747378752e-05
1.2763705854013097e-05,1.0,0.5063267350196838,0.9399999976158142,9.999999747378752e-05
1.1477312000351958e-05,1.0,0.5064424872398376,0.9399999976158142,9.999999747378752e-05
1.037493348121643e-05,1.0,0.506550669670105,0.9399999976158142,9.999999747378752e-05
1.4154174095892813e-05,1.0,0.5065110921859741,0.9399999976158142,9.999999747378752e-05
7.643166100024246e-06,1.0,0.506543755531311,0.9399999976158142,9.999999747378752e-05
2.7144962587044574e-05,1.0,0.5068540573120117,0.9399999976158142,9.999999747378752e-05
1.512321068730671e-05,1.0,0.5076248645782471,0.9399999976158142,9.999999747378752e-05
1.2792734196409583e-05,1.0,0.5079715847969055,0.9399999976158142,9.999999747378752e-05
1.552268076920882e-05,1.0,0.508205235004425,0.9399999976158142,9.999999747378752e-05
1.5660489225410856e-05,1.0,0.5084277391433716,0.9399999976158142,9.999999747378752e-05
1.4115546946413815e-05,1.0,0.5087926983833313,0.9399999976158142,9.999999747378752e-05
1.3025082807871513e-05,1.0,0.5088394284248352,0.9399999976158142,9.999999747378752e-05
1.5983636330929585e-05,1.0,0.5087820887565613,0.9399999976158142,9.999999747378752e-05
1.1674407687678467e-05,1.0,0.5085259079933167,0.9399999976158142,9.999999747378752e-05
8.430584784946404e-06,1.0,0.5083616375923157,0.9399999976158142,9.999999747378752e-05
1.4788388398301322e-05,1.0,0.5082374215126038,0.9399999976158142,9.999999747378752e-05
1.014512417896185e-05,1.0,0.5083181262016296,0.9399999976158142,9.999999747378752e-05
1.8333572370465845e-05,1.0,0.5084424614906311,0.9399999976158142,9.999999747378752e-05
1.2914621947857086e-05,1.0,0.5086241364479065,0.9397777915000916,9.999999747378752e-05
9.432746992388275e-06,1.0,0.5088532567024231,0.9395555257797241,9.999999747378752e-05
3.900581577909179e-05,1.0,0.5086401104927063,0.9395555257797241,9.999999747378752e-05
1.1528087270562537e-05,1.0,0.5077440738677979,0.9377777576446533,9.999999747378752e-05
1.3780319022771437e-05,1.0,0.5078162550926208,0.9375555515289307,9.999999747378752e-05
2.113367554557044e-05,1.0,0.5076168179512024,0.937333345413208,9.999999747378752e-05
1.6842510376591235e-05,1.0,0.5062676072120667,0.9371111392974854,9.999999747378752e-05
1.0950680007226765e-05,1.0,0.5058032870292664,0.937333345413208,9.999999747378752e-05
2.2340873329085298e-05,1.0,0.5067504048347473,0.9375555515289307,9.999999747378752e-05
1.0310179277439602e-05,1.0,0.5073341727256775,0.9375555515289307,9.999999747378752e-05
1.055582924891496e-05,1.0,0.507718026638031,0.9375555515289307,9.999999747378752e-05
1.0891097190324217e-05,1.0,0.5078703165054321,0.9375555515289307,9.999999747378752e-05
2.7308318749419414e-05,1.0,0.507957935333252,0.9377777576446533,9.999999747378752e-05
9.707006029202603e-06,1.0,0.5073751211166382,0.937333345413208,9.999999747378752e-05
2.1445885067805648e-05,1.0,0.5072878003120422,0.9371111392974854,9.999999747378752e-05
8.679149686940946e-06,1.0,0.5061749219894409,0.937333345413208,9.999999747378752e-05
1.2817386050301138e-05,1.0,0.5056982636451721,0.937333345413208,9.999999747378752e-05
8.056729711825028e-06,1.0,0.5056580901145935,0.937333345413208,9.999999747378752e-05
1.0255096640321426e-05,1.0,0.5060011148452759,0.9375555515289307,9.999999747378752e-05
1.5567340597044677e-05,1.0,0.5067884922027588,0.9375555515289307,9.999999747378752e-05
1.1310592526569963e-05,1.0,0.5075622797012329,0.9380000233650208,9.999999747378752e-05
1.0456225027155597e-05,1.0,0.507951021194458,0.9380000233650208,9.999999747378752e-05
1.7396063412888907e-05,1.0,0.5082761645317078,0.9382222294807434,9.999999747378752e-05
1.8280103176948614e-05,1.0,0.5081735849380493,0.9382222294807434,9.999999747378752e-05
1.2811960004910361e-05,1.0,0.5078937411308289,0.9380000233650208,9.999999747378752e-05
1.444178542442387e-05,1.0,0.508021891117096,0.9382222294807434,9.999999747378752e-05
1.4246546015783679e-05,1.0,0.5084249377250671,0.9382222294807434,9.999999747378752e-05
1.1226105016248766e-05,1.0,0.5087156295776367,0.9384444355964661,9.999999747378752e-05
1.087344662664691e-05,1.0,0.5090817213058472,0.9386666417121887,9.999999747378752e-05
9.287771717936266e-06,1.0,0.5093516707420349,0.9386666417121887,9.999999747378752e-05
1.1907562111446168e-05,1.0,0.5097151398658752,0.9386666417121887,9.999999747378752e-05
1.3488232980307657e-05,1.0,0.5097938179969788,0.9386666417121887,9.999999747378752e-05
9.560593753121793e-06,1.0,0.509596586227417,0.9386666417121887,9.999999747378752e-05
9.089834748010617e-06,1.0,0.5096790194511414,0.9388889074325562,9.999999747378752e-05
2.3489576051360928e-05,1.0,0.5095764398574829,0.9388889074325562,9.999999747378752e-05
7.018559699645266e-06,1.0,0.5094916820526123,0.9388889074325562,9.999999747378752e-05
7.815315257175826e-06,1.0,0.5094577670097351,0.9388889074325562,9.999999747378752e-05
9.997811503126286e-06,1.0,0.5096063613891602,0.9388889074325562,9.999999747378752e-05
7.750702934572473e-06,1.0,0.5098168849945068,0.9388889074325562,9.999999747378752e-05
9.808768481889274e-06,1.0,0.5101168751716614,0.9391111135482788,9.999999747378752e-05
8.56934093462769e-06,1.0,0.5103848576545715,0.9393333196640015,9.999999747378752e-05
6.454194135585567e-06,1.0,0.5106600522994995,0.9393333196640015,9.999999747378752e-05
2.4976543500088155e-05,1.0,0.5108805298805237,0.9393333196640015,9.999999747378752e-05
1.0220565854979213e-05,1.0,0.5111188292503357,0.9393333196640015,9.999999747378752e-05
6.273545295698568e-06,1.0,0.5112833380699158,0.9391111135482788,9.999999747378752e-05
1.6776048141764477e-05,1.0,0.5115131139755249,0.9393333196640015,9.999999747378752e-05
1.5510979210375808e-05,1.0,0.5117347240447998,0.9395555257797241,9.999999747378752e-05
1.5341907783295028e-05,1.0,0.5118200182914734,0.9395555257797241,9.999999747378752e-05
7.777219252602663e-06,1.0,0.5117852091789246,0.9393333196640015,9.999999747378752e-05
1.1720504517143127e-05,1.0,0.5116231441497803,0.9393333196640015,9.999999747378752e-05
5.3749909056932665e-06,1.0,0.5111326575279236,0.9393333196640015,9.999999747378752e-05
8.482988960167859e-06,1.0,0.5110207796096802,0.9393333196640015,9.999999747378752e-05
8.00211819296237e-06,1.0,0.5110201835632324,0.9393333196640015,9.999999747378752e-05
2.1024099623900838e-05,1.0,0.5113552808761597,0.9393333196640015,9.999999747378752e-05
8.8029619291774e-06,1.0,0.5118453502655029,0.9393333196640015,9.999999747378752e-05
4.98091867484618e-06,1.0,0.5121362805366516,0.9393333196640015,9.999999747378752e-05
7.890562301327009e-06,1.0,0.512474000453949,0.9393333196640015,9.999999747378752e-05
2.4911818400141783e-05,1.0,0.5132449269294739,0.9393333196640015,9.999999747378752e-05
7.675842425669543e-06,1.0,0.5138552784919739,0.9395555257797241,9.999999747378752e-05
1.2636563951673452e-05,1.0,0.5142869353294373,0.9395555257797241,9.999999747378752e-05
1.1777009603974875e-05,1.0,0.5143487453460693,0.9393333196640015,9.999999747378752e-05
5.814632913825335e-06,1.0,0.5140266418457031,0.9393333196640015,9.999999747378752e-05
9.998389032261912e-06,1.0,0.5141990780830383,0.9393333196640015,9.999999747378752e-05
9.603352737030946e-06,1.0,0.514223039150238,0.9393333196640015,9.999999747378752e-05
9.383215910929721e-06,1.0,0.5143321752548218,0.9393333196640015,9.999999747378752e-05
9.70051496551605e-06,1.0,0.5143276453018188,0.9393333196640015,9.999999747378752e-05
6.769375886506168e-06,1.0,0.5142833590507507,0.9393333196640015,9.999999747378752e-05
1.51023787111626e-05,1.0,0.5139049887657166,0.9393333196640015,9.999999747378752e-05
7.2843504312913865e-06,1.0,0.513966977596283,0.9393333196640015,9.999999747378752e-05
8.404017535212915e-06,1.0,0.514086127281189,0.9393333196640015,9.999999747378752e-05
1.1746654308808502e-05,1.0,0.5144147872924805,0.9393333196640015,9.999999747378752e-05
1.0432657290948555e-05,1.0,0.514382541179657,0.9393333196640015,9.999999747378752e-05
6.0623124227277e-06,1.0,0.5143905878067017,0.9393333196640015,9.999999747378752e-05
2.4601424229331315e-05,1.0,0.5145124197006226,0.9391111135482788,9.999999747378752e-05
1.4118055332801305e-05,1.0,0.5142460465431213,0.9388889074325562,9.999999747378752e-05
8.828789759718347e-06,1.0,0.5142351388931274,0.9384444355964661,9.999999747378752e-05
7.571142305096146e-06,1.0,0.5142876505851746,0.9384444355964661,9.999999747378752e-05
1.1035303032258525e-05,1.0,0.5144028067588806,0.9388889074325562,9.999999747378752e-05
8.855080523062497e-06,1.0,0.514345645904541,0.9388889074325562,9.999999747378752e-05
9.714808584249113e-06,1.0,0.5145273208618164,0.9386666417121887,9.999999747378752e-05
6.843530172773171e-06,1.0,0.5145125985145569,0.9388889074325562,9.999999747378752e-05
1.0411137736809906e-05,1.0,0.5146493315696716,0.9388889074325562,9.999999747378752e-05
1.0402939551568124e-05,1.0,0.5145097374916077,0.9391111135482788,9.999999747378752e-05
1.2047136806359049e-05,1.0,0.5145237445831299,0.9391111135482788,9.999999747378752e-05
1.1524534784257412e-05,1.0,0.5141346454620361,0.9391111135482788,9.999999747378752e-05
1.401798363076523e-05,1.0,0.5135124325752258,0.9391111135482788,9.999999747378752e-05
8.462309779133648e-06,1.0,0.5123125910758972,0.9391111135482788,9.999999747378752e-05
7.0477722147188615e-06,1.0,0.5120851397514343,0.9391111135482788,9.999999747378752e-05
1.0546027624513954e-05,1.0,0.5122507810592651,0.9393333196640015,9.999999747378752e-05
6.459420092141954e-06,1.0,0.5122736096382141,0.9393333196640015,9.999999747378752e-05
1.5908603018033318e-05,1.0,0.5125468969345093,0.9391111135482788,9.999999747378752e-05
5.178622814128175e-06,1.0,0.5124568939208984,0.9393333196640015,9.999999747378752e-05
5.849658919032663e-06,1.0,0.5127338171005249,0.9393333196640015,9.999999747378752e-05
9.471770681557246e-06,1.0,0.513112485408783,0.9393333196640015,9.999999747378752e-05
1.9576531485654414e-05,1.0,0.5135923624038696,0.9393333196640015,9.999999747378752e-05
8.887004696589429e-06,1.0,0.5141108632087708,0.9391111135482788,9.999999747378752e-05
8.21638877823716e-06,1.0,0.5145285129547119,0.9393333196640015,9.999999747378752e-05
1.075461295840796e-05,1.0,0.5149473547935486,0.9395555257797241,9.999999747378752e-05
1.320640240010107e-05,1.0,0.5154936909675598,0.9393333196640015,9.999999747378752e-05
8.894112397683784e-06,1.0,0.5156183838844299,0.9393333196640015,9.999999747378752e-05
1.5910429283394478e-05,1.0,0.5157608985900879,0.9388889074325562,9.999999747378752e-05
1.3143629075784702e-05,1.0,0.5160180330276489,0.9391111135482788,9.999999747378752e-05
6.170136657601688e-06,1.0,0.5163715481758118,0.9388889074325562,9.999999747378752e-05
4.943937710777391e-06,1.0,0.5166180729866028,0.9391111135482788,9.999999747378752e-05
6.765463240299141e-06,1.0,0.516865074634552,0.9391111135482788,9.999999747378752e-05
2.675545692909509e-05,1.0,0.5164258480072021,0.9393333196640015,9.999999747378752e-05
1.5881603758316487e-05,1.0,0.5161360502243042,0.9393333196640015,9.999999747378752e-05
6.9587217694788706e-06,1.0,0.5160674452781677,0.9393333196640015,9.999999747378752e-05
9.876423064270057e-06,1.0,0.516562819480896,0.9393333196640015,9.999999747378752e-05
1.4050157915335149e-05,1.0,0.5180535912513733,0.9393333196640015,9.999999747378752e-05
6.078018031985266e-06,1.0,0.5187422037124634,0.9393333196640015,9.999999747378752e-05
1.1928434105357155e-05,1.0,0.5187612771987915,0.9393333196640015,9.999999747378752e-05
7.181845830928069e-06,1.0,0.5190320611000061,0.9393333196640015,9.999999747378752e-05
1.7245434719370678e-05,1.0,0.5192267298698425,0.9393333196640015,9.999999747378752e-05
5.320457603374962e-06,1.0,0.5187131762504578,0.9393333196640015,9.999999747378752e-05
8.816210538498126e-06,1.0,0.5186590552330017,0.9393333196640015,9.999999747378752e-05
8.515604349668138e-06,1.0,0.5187249779701233,0.9393333196640015,9.999999747378752e-05
4.778780748893041e-06,1.0,0.5187106728553772,0.9395555257797241,9.999999747378752e-05
6.068321454222314e-06,1.0,0.5188934206962585,0.9397777915000916,9.999999747378752e-05
1.0543059033807367e-05,1.0,0.5183771252632141,0.9395555257797241,9.999999747378752e-05
1.3421172297967132e-05,1.0,0.5179662704467773,0.9395555257797241,9.999999747378752e-05
1.0963754903059453e-05,1.0,0.5178269147872925,0.9393333196640015,9.999999747378752e-05
6.6738916757458355e-06,1.0,0.517977237701416,0.9391111135482788,9.999999747378752e-05
1.2061062079737894e-05,1.0,0.518542468547821,0.9397777915000916,9.999999747378752e-05
9.86618033493869e-06,1.0,0.519175112247467,0.9399999976158142,9.999999747378752e-05
5.551438789552776e-06,1.0,0.5196868777275085,0.9399999976158142,9.999999747378752e-05
6.076360023143934e-06,1.0,0.5200120210647583,0.9399999976158142,9.999999747378752e-05
8.571333637519274e-06,1.0,0.5201451778411865,0.9399999976158142,9.999999747378752e-05
9.227162081515417e-06,1.0,0.5204795598983765,0.9399999976158142,9.999999747378752e-05
4.604894456861075e-06,1.0,0.5205057263374329,0.9399999976158142,9.999999747378752e-05
6.4137302615563385e-06,1.0,0.5206747055053711,0.9402222037315369,9.999999747378752e-05
7.22419918020023e-06,1.0,0.5209107995033264,0.9402222037315369,9.999999747378752e-05
1.0583292350929696e-05,1.0,0.5212221741676331,0.9402222037315369,9.999999747378752e-05
8.25014376459876e-06,1.0,0.5217214822769165,0.9399999976158142,9.999999747378752e-05
5.698991117242258e-06,1.0,0.5218552947044373,0.9399999976158142,9.999999747378752e-05
9.698213034425862e-06,1.0,0.5220432281494141,0.9399999976158142,9.999999747378752e-05
6.28131783741992e-06,1.0,0.5219597220420837,0.9397777915000916,9.999999747378752e-05
6.086525900173001e-06,1.0,0.5217980742454529,0.9397777915000916,9.999999747378752e-05
9.345903890789486e-06,1.0,0.5218936800956726,0.9397777915000916,9.999999747378752e-05
1.1187936252099462e-05,1.0,0.5216810703277588,0.9397777915000916,9.999999747378752e-05
1.009116749628447e-05,1.0,0.5214991569519043,0.9397777915000916,9.999999747378752e-05
6.3488801060884725e-06,1.0,0.5212963223457336,0.9399999976158142,9.999999747378752e-05
5.633163254969986e-06,1.0,0.5214112401008606,0.9397777915000916,9.999999747378752e-05
1.238759887201013e-05,1.0,0.5216992497444153,0.9395555257797241,9.999999747378752e-05
1.0661236046871636e-05,1.0,0.5220741629600525,0.9397777915000916,9.999999747378752e-05
7.702909897489008e-06,1.0,0.521812379360199,0.9395555257797241,9.999999747378752e-05
6.365103672578698e-06,1.0,0.5218468308448792,0.9395555257797241,9.999999747378752e-05
4.507697212829953e-06,1.0,0.5219841599464417,0.9395555257797241,9.999999747378752e-05
5.519623755390057e-06,1.0,0.5220808982849121,0.9397777915000916,9.999999747378752e-05
5.049215815233765e-06,1.0,0.5221746563911438,0.9397777915000916,9.999999747378752e-05
1.0139337973669171e-05,1.0,0.5221542716026306,0.9395555257797241,9.999999747378752e-05
7.270330570463557e-06,1.0,0.522327721118927,0.9395555257797241,9.999999747378752e-05
7.770257980155293e-06,1.0,0.5224249958992004,0.9397777915000916,9.999999747378752e-05
7.365640158241149e-06,1.0,0.5223710536956787,0.9397777915000916,9.999999747378752e-05
4.759177954838378e-06,1.0,0.5223807692527771,0.9397777915000916,9.999999747378752e-05
8.957487807492726e-06,1.0,0.5224671363830566,0.9397777915000916,9.999999747378752e-05
7.103149073373061e-06,1.0,0.5227918028831482,0.9397777915000916,9.999999747378752e-05
2.0304520148783922e-05,1.0,0.5231767296791077,0.9397777915000916,9.999999747378752e-05
6.21677872914006e-06,1.0,0.5237714648246765,0.9397777915000916,9.999999747378752e-05
7.619423740834463e-06,1.0,0.5240371823310852,0.9397777915000916,9.999999747378752e-05
1.821421756176278e-05,1.0,0.5239647030830383,0.9404444694519043,9.999999747378752e-05
5.207105914450949e-06,1.0,0.5237342715263367,0.940666675567627,9.999999747378752e-05
6.010047400195617e-06,1.0,0.523150622844696,0.9408888816833496,9.999999747378752e-05
5.927389793214388e-06,1.0,0.523140549659729,0.9408888816833496,9.999999747378752e-05
2.9653914680238813e-05,1.0,0.5226913690567017,0.9408888816833496,9.999999747378752e-05
7.506253496103454e-06,1.0,0.5221660137176514,0.9408888816833496,9.999999747378752e-05
6.192054570419714e-06,1.0,0.5218923687934875,0.9402222037315369,9.999999747378752e-05
1.572604560351465e-05,1.0,0.5220651626586914,0.9402222037315369,9.999999747378752e-05
1.271963174076518e-05,1.0,0.5224592089653015,0.9397777915000916,9.999999747378752e-05
1.4053975974093191e-05,1.0,0.5235958695411682,0.9404444694519043,9.999999747378752e-05
4.188470029475866e-06,1.0,0.5244580507278442,0.9404444694519043,9.999999747378752e-05
6.265806860028533e-06,1.0,0.5250603556632996,0.9404444694519043,9.999999747378752e-05
5.8323826124251354e-06,1.0,0.5252428650856018,0.940666675567627,9.999999747378752e-05
1.0872807251871563e-05,1.0,0.5255333185195923,0.940666675567627,9.999999747378752e-05
7.5041102718387265e-06,1.0,0.5255724191665649,0.940666675567627,9.999999747378752e-05
4.447854280442698e-06,1.0,0.5256240367889404,0.940666675567627,9.999999747378752e-05
7.007609838183271e-06,1.0,0.5257776975631714,0.9404444694519043,9.999999747378752e-05
4.823542440135498e-06,1.0,0.5258373618125916,0.9402222037315369,9.999999747378752e-05
7.248235760926036e-06,1.0,0.525741457939148,0.9402222037315369,9.999999747378752e-05
9.169834811473265e-06,1.0,0.5255677700042725,0.9404444694519043,9.999999747378752e-05
4.69096630695276e-06,1.0,0.5252565145492554,0.9404444694519043,9.999999747378752e-05
8.639586667413823e-06,1.0,0.525183379650116,0.9404444694519043,9.999999747378752e-05
3.4210156627523247e-06,1.0,0.52512526512146,0.9404444694519043,9.999999747378752e-05
1.0030484190792777e-05,1.0,0.5256537199020386,0.9404444694519043,9.999999747378752e-05
3.1647302876081085e-06,1.0,0.5261216163635254,0.9402222037315369,9.999999747378752e-05
4.472122327570105e-06,1.0,0.5262852907180786,0.9404444694519043,9.999999747378752e-05
5.479833362187492e-06,1.0,0.5262454152107239,0.9404444694519043,9.999999747378752e-05
5.283165592118166e-06,1.0,0.5261946320533752,0.9402222037315369,9.999999747378752e-05
8.389754839299712e-06,1.0,0.5262541174888611,0.9402222037315369,9.999999747378752e-05
3.190006509612431e-06,1.0,0.5261759757995605,0.9402222037315369,9.999999747378752e-05
5.529723239305895e-06,1.0,0.5263802409172058,0.9397777915000916,9.999999747378752e-05
9.74330851022387e-06,1.0,0.5266556143760681,0.9397777915000916,9.999999747378752e-05
5.848652563145151e-06,1.0,0.5270817875862122,0.9397777915000916,9.999999747378752e-05
4.380272912385408e-06,1.0,0.5273067951202393,0.9399999976158142,9.999999747378752e-05
6.380832019203808e-06,1.0,0.52751225233078,0.9399999976158142,9.999999747378752e-05
4.63403466710588e-06,1.0,0.5275331139564514,0.9399999976158142,9.999999747378752e-05
4.515326509135775e-06,1.0,0.5274653434753418,0.9399999976158142,9.999999747378752e-05
5.254970801615855e-06,1.0,0.5273295640945435,0.9404444694519043,9.999999747378752e-05
6.3049737946130335e-06,1.0,0.5275339484214783,0.9402222037315369,9.999999747378752e-05
1.2853702173742931e-05,1.0,0.5270369052886963,0.940666675567627,9.999999747378752e-05
5.0303892749070656e-06,1.0,0.5256999731063843,0.9404444694519043,9.999999747378752e-05
3.7166569200053345e-06,1.0,0.525346040725708,0.9404444694519043,9.999999747378752e-05
5.117651653563371e-06,1.0,0.5253951549530029,0.9404444694519043,9.999999747378752e-05
4.7064436330401804e-06,1.0,0.5256026387214661,0.9404444694519043,9.999999747378752e-05
1.2055073966621421e-05,1.0,0.5264859199523926,0.9404444694519043,9.999999747378752e-05
6.43340399619774e-06,1.0,0.5270107388496399,0.940666675567627,9.999999747378752e-05
5.707562195311766e-06,1.0,0.5271464586257935,0.940666675567627,9.999999747378752e-05
4.48215905635152e-06,1.0,0.5271159410476685,0.940666675567627,9.999999747378752e-05
6.007938281982206e-06,1.0,0.5272377133369446,0.940666675567627,9.999999747378752e-05
5.807853085570969e-06,1.0,0.5272756814956665,0.940666675567627,9.999999747378752e-05
6.241425126063405e-06,1.0,0.527406632900238,0.940666675567627,9.999999747378752e-05
7.0528908509004395e-06,1.0,0.5273037552833557,0.940666675567627,9.999999747378752e-05
4.930770046485122e-06,1.0,0.5271651744842529,0.940666675567627,9.999999747378752e-05
4.978535798727535e-06,1.0,0.5271151661872864,0.9402222037315369,9.999999747378752e-05
5.956802397122374e-06,1.0,0.5271804332733154,0.9402222037315369,9.999999747378752e-05
3.3266012451349525e-06,1.0,0.5271818041801453,0.9404444694519043,9.999999747378752e-05
8.407015229749959e-06,1.0,0.5274906158447266,0.9404444694519043,9.999999747378752e-05
1.3571824638347607e-05,1.0,0.5274634957313538,0.9402222037315369,9.999999747378752e-05
3.7476331726793433e-06,1.0,0.526678740978241,0.9399999976158142,9.999999747378752e-05
3.4463012070773402e-06,1.0,0.5264092087745667,0.9397777915000916,9.999999747378752e-05
8.095341399894096e-06,1.0,0.5264961123466492,0.9397777915000916,9.999999747378752e-05
3.924543307221029e-06,1.0,0.5266660451889038,0.9402222037315369,9.999999747378752e-05
1.263285412278492e-05,1.0,0.5271091461181641,0.9404444694519043,9.999999747378752e-05
5.454137863125652e-06,1.0,0.5274117588996887,0.9402222037315369,9.999999747378752e-05
6.708592991344631e-06,1.0,0.5276305079460144,0.9402222037315369,9.999999747378752e-05
1.1171216101502068e-05,1.0,0.5277005434036255,0.9402222037315369,9.999999747378752e-05
6.078360456740484e-06,1.0,0.5276033282279968,0.9404444694519043,9.999999747378752e-05
2.4420937734248582e-06,1.0,0.5276572108268738,0.9402222037315369,9.999999747378752e-05
7.060243660816923e-06,1.0,0.5278822779655457,0.9402222037315369,9.999999747378752e-05
1.0543341886659618e-05,1.0,0.527787983417511,0.9402222037315369,9.999999747378752e-05
3.7647296267095953e-06,1.0,0.5273973345756531,0.9404444694519043,9.999999747378752e-05
8.589984645368531e-06,1.0,0.5274590253829956,0.9402222037315369,9.999999747378752e-05
4.046554749947973e-06,1.0,0.5283952951431274,0.9402222037315369,9.999999747378752e-05
1.5825182344997302e-05,1.0,0.5293449759483337,0.9404444694519043,9.999999747378752e-05
2.841189143509837e-06,1.0,0.53013676404953,0.9404444694519043,9.999999747378752e-05
9.319246601080522e-06,1.0,0.5302038192749023,0.9404444694519043,9.999999747378752e-05
5.4637930588796735e-06,1.0,0.5299848914146423,0.940666675567627,9.999999747378752e-05
4.5314427552511916e-06,1.0,0.5294598340988159,0.940666675567627,9.999999747378752e-05
4.849535798712168e-06,1.0,0.5292556285858154,0.9408888816833496,9.999999747378752e-05
5.536147455131868e-06,1.0,0.5293996930122375,0.9408888816833496,9.999999747378752e-05
