loss,accuracy,val_loss,val_accuracy
0.2892898619174957,0.3100000023841858,0.2624455988407135,0.25
0.25270968675613403,0.5699999928474426,0.2424682080745697,0.6399999856948853
0.2277584969997406,0.6899999976158142,0.23401491343975067,0.6399999856948853
0.22125232219696045,0.6899999976158142,0.2317308634519577,0.6399999856948853
0.21498475968837738,0.6899999976158142,0.23076105117797852,0.6399999856948853
0.21403038501739502,0.6899999976158142,0.22997638583183289,0.6399999856948853
0.21318113803863525,0.6899999976158142,0.23033073544502258,0.6399999856948853
0.213215172290802,0.6899999976158142,0.23061804473400116,0.6399999856948853
0.2129010409116745,0.6899999976158142,0.22983449697494507,0.6399999856948853
0.2125231921672821,0.6899999976158142,0.22886623442173004,0.6399999856948853
0.21344169974327087,0.6899999976158142,0.2281617969274521,0.6399999856948853
0.21218416094779968,0.6899999976158142,0.2291225790977478,0.6399999856948853
0.2120697945356369,0.6899999976158142,0.23068256676197052,0.6399999856948853
0.21190756559371948,0.6899999976158142,0.23082321882247925,0.6399999856948853
0.2121623456478119,0.6899999976158142,0.22865460813045502,0.6399999856948853
0.21127495169639587,0.6899999976158142,0.22717957198619843,0.6399999856948853
0.2104104608297348,0.6899999976158142,0.2271985560655594,0.6399999856948853
0.21036426723003387,0.6899999976158142,0.22829940915107727,0.6399999856948853
0.21074630320072174,0.6899999976158142,0.2292429506778717,0.6399999856948853
0.21008411049842834,0.6899999976158142,0.22804810106754303,0.6399999856948853
0.20920458436012268,0.6899999976158142,0.22526487708091736,0.6399999856948853
0.2085067629814148,0.6899999976158142,0.22415222227573395,0.6399999856948853
0.2079998403787613,0.6899999976158142,0.2233160436153412,0.6399999856948853
0.2072039395570755,0.6899999976158142,0.22167448699474335,0.6399999856948853
0.20719897747039795,0.6899999976158142,0.2205788493156433,0.6399999856948853
0.20636135339736938,0.6899999976158142,0.22052717208862305,0.6399999856948853
0.205611914396286,0.6899999976158142,0.2197454422712326,0.6399999856948853
0.20495933294296265,0.6899999976158142,0.21898512542247772,0.6399999856948853
0.2042485624551773,0.6899999976158142,0.21828404068946838,0.6399999856948853
0.20378082990646362,0.6899999976158142,0.21789877116680145,0.6399999856948853
0.2029428482055664,0.6899999976158142,0.21721681952476501,0.6399999856948853
0.20200367271900177,0.6899999976158142,0.21536727249622345,0.6399999856948853
0.20162218809127808,0.6899999976158142,0.2124006450176239,0.6399999856948853
0.20074161887168884,0.6899999976158142,0.21042747795581818,0.6399999856948853
0.1997257024049759,0.6899999976158142,0.2103995382785797,0.6399999856948853
0.1980731040239334,0.6899999976158142,0.20962831377983093,0.6399999856948853
0.1971854716539383,0.6899999976158142,0.20873329043388367,0.6399999856948853
0.19626691937446594,0.6899999976158142,0.20776396989822388,0.6399999856948853
0.19545406103134155,0.6899999976158142,0.2062942087650299,0.6399999856948853
0.1948164403438568,0.6899999976158142,0.2040279060602188,0.6399999856948853
0.19297483563423157,0.6899999976158142,0.2031134068965912,0.6399999856948853
0.19203472137451172,0.6899999976158142,0.20158372819423676,0.6399999856948853
0.1909608095884323,0.6899999976158142,0.2000875025987625,0.6399999856948853
0.19010727107524872,0.6899999976158142,0.1966574788093567,0.6399999856948853
0.18841609358787537,0.6899999976158142,0.1953704059123993,0.6399999856948853
0.18748676776885986,0.6899999976158142,0.19477897882461548,0.6399999856948853
0.18670015037059784,0.6899999976158142,0.19373247027397156,0.6399999856948853
0.18493591248989105,0.6899999976158142,0.19095858931541443,0.6600000262260437
0.18361049890518188,0.699999988079071,0.18920202553272247,0.6700000166893005
0.18235719203948975,0.699999988079071,0.18829365074634552,0.6700000166893005
0.18130390346050262,0.699999988079071,0.1871955692768097,0.6800000071525574
0.1801995038986206,0.699999988079071,0.18538857996463776,0.6800000071525574
0.1790311485528946,0.699999988079071,0.18323031067848206,0.6899999976158142
0.17753751575946808,0.7099999785423279,0.18170297145843506,0.699999988079071
0.17637526988983154,0.7200000286102295,0.17968221008777618,0.7599999904632568
0.1752946823835373,0.7400000095367432,0.17817232012748718,0.7799999713897705
0.17448103427886963,0.75,0.1767808496952057,0.7799999713897705
0.1729142814874649,0.7400000095367432,0.1747533231973648,0.8100000023841858
0.1718202531337738,0.75,0.1734481006860733,0.800000011920929
0.17031745612621307,0.7599999904632568,0.17311972379684448,0.800000011920929
0.16869346797466278,0.7599999904632568,0.172454833984375,0.7799999713897705
0.16846352815628052,0.75,0.1724734753370285,0.7699999809265137
0.16734570264816284,0.7400000095367432,0.17017650604248047,0.800000011920929
0.1655607670545578,0.7599999904632568,0.1670939028263092,0.8100000023841858
0.16414736211299896,0.7599999904632568,0.1657559722661972,0.8100000023841858
0.16495674848556519,0.7699999809265137,0.1658843755722046,0.8100000023841858
0.16229139268398285,0.7599999904632568,0.16387692093849182,0.8100000023841858
0.16138315200805664,0.7599999904632568,0.16239511966705322,0.8100000023841858
0.16020333766937256,0.7699999809265137,0.16185931861400604,0.8100000023841858
0.1591118723154068,0.7599999904632568,0.16070078313350677,0.8100000023841858
0.15781155228614807,0.7799999713897705,0.15923821926116943,0.8199999928474426
0.1570388525724411,0.7799999713897705,0.15810199081897736,0.8199999928474426
0.1572006791830063,0.7900000214576721,0.15711309015750885,0.8299999833106995
0.15680117905139923,0.7799999713897705,0.1574297547340393,0.8100000023841858
0.1548418551683426,0.7699999809265137,0.15641550719738007,0.8100000023841858
0.1537076085805893,0.7799999713897705,0.1556418538093567,0.8100000023841858
0.15270227193832397,0.7599999904632568,0.15574650466442108,0.8100000023841858
0.1526281237602234,0.7599999904632568,0.15526531636714935,0.8100000023841858
0.15214094519615173,0.7599999904632568,0.15420976281166077,0.8100000023841858
0.1503794938325882,0.7699999809265137,0.1519286036491394,0.8299999833106995
0.14912162721157074,0.800000011920929,0.15138599276542664,0.800000011920929
0.14891734719276428,0.8199999928474426,0.15062148869037628,0.800000011920929
0.14876432716846466,0.800000011920929,0.1497444212436676,0.8299999833106995
0.14696340262889862,0.800000011920929,0.14909565448760986,0.8199999928474426
0.14617279171943665,0.800000011920929,0.1486726701259613,0.8299999833106995
0.14561285078525543,0.7900000214576721,0.14890700578689575,0.8199999928474426
0.1451626420021057,0.7900000214576721,0.14792613685131073,0.8199999928474426
0.14388857781887054,0.7900000214576721,0.14709840714931488,0.8299999833106995
0.14348912239074707,0.8100000023841858,0.1462506800889969,0.800000011920929
0.14245770871639252,0.8199999928474426,0.14582297205924988,0.8199999928474426
0.14293919503688812,0.800000011920929,0.14592979848384857,0.8299999833106995
0.14211072027683258,0.7900000214576721,0.14541374146938324,0.8199999928474426
0.1405935138463974,0.8199999928474426,0.14448469877243042,0.7799999713897705
0.14081521332263947,0.8199999928474426,0.14402621984481812,0.800000011920929
0.13964353501796722,0.800000011920929,0.14361925423145294,0.7799999713897705
0.1391589492559433,0.8199999928474426,0.1432264894247055,0.800000011920929
0.13813966512680054,0.8199999928474426,0.1430039405822754,0.8199999928474426
0.13787876069545746,0.8199999928474426,0.14298215508460999,0.8199999928474426
0.13759712874889374,0.8199999928474426,0.14243319630622864,0.8199999928474426
0.13669393956661224,0.8199999928474426,0.14181332290172577,0.7799999713897705
0.13575530052185059,0.800000011920929,0.14183077216148376,0.7900000214576721
0.13594108819961548,0.7900000214576721,0.14196355640888214,0.7900000214576721
0.1358075886964798,0.7900000214576721,0.14116820693016052,0.7799999713897705
0.13467417657375336,0.7900000214576721,0.14071005582809448,0.7799999713897705
0.13400273025035858,0.8100000023841858,0.14043958485126495,0.7900000214576721
0.13377510011196136,0.8199999928474426,0.1403067708015442,0.800000011920929
0.13341104984283447,0.8199999928474426,0.13988915085792542,0.800000011920929
0.13291457295417786,0.8199999928474426,0.13959930837154388,0.800000011920929
0.1321789175271988,0.8100000023841858,0.1399243026971817,0.7900000214576721
0.1337059736251831,0.8199999928474426,0.140126034617424,0.7900000214576721
0.13192415237426758,0.8100000023841858,0.13909779489040375,0.7799999713897705
0.13078325986862183,0.8199999928474426,0.1391751915216446,0.800000011920929
0.13091887533664703,0.8199999928474426,0.1393410563468933,0.800000011920929
0.1321769654750824,0.8199999928474426,0.13933716714382172,0.8199999928474426
0.1302550733089447,0.8199999928474426,0.1384987235069275,0.7799999713897705
0.1292531043291092,0.800000011920929,0.13852575421333313,0.7900000214576721
0.1299481838941574,0.8100000023841858,0.13875752687454224,0.7900000214576721
0.1293073445558548,0.8100000023841858,0.13826856017112732,0.7900000214576721
0.12887786328792572,0.8100000023841858,0.13798788189888,0.7900000214576721
0.12797851860523224,0.8199999928474426,0.13766807317733765,0.7900000214576721
0.12800191342830658,0.8100000023841858,0.1376032531261444,0.800000011920929
0.1276465207338333,0.8199999928474426,0.1376258134841919,0.8100000023841858
0.12784062325954437,0.8299999833106995,0.13807861506938934,0.8199999928474426
0.12817364931106567,0.8100000023841858,0.13805364072322845,0.8299999833106995
0.12743167579174042,0.8299999833106995,0.13734684884548187,0.8100000023841858
0.12611591815948486,0.8399999737739563,0.13699449598789215,0.7900000214576721
0.1259821355342865,0.8299999833106995,0.1371075063943863,0.7900000214576721
0.1259784996509552,0.8100000023841858,0.13691167533397675,0.7900000214576721
0.12552939355373383,0.8199999928474426,0.1367504596710205,0.7900000214576721
0.1252650022506714,0.8299999833106995,0.13663539290428162,0.7900000214576721
0.12497567385435104,0.8299999833106995,0.13658709824085236,0.7900000214576721
0.12466532737016678,0.8299999833106995,0.13646724820137024,0.7900000214576721
0.12434454262256622,0.8199999928474426,0.13641710579395294,0.7900000214576721
0.12450607120990753,0.8299999833106995,0.13638430833816528,0.7900000214576721
0.12378120422363281,0.8199999928474426,0.13631434738636017,0.7900000214576721
0.12453803420066833,0.8199999928474426,0.13642974197864532,0.800000011920929
0.1235455870628357,0.8399999737739563,0.13620419800281525,0.7900000214576721
0.12314993143081665,0.8199999928474426,0.13623036444187164,0.7799999713897705
0.123172327876091,0.8199999928474426,0.1361699402332306,0.7799999713897705
0.12265504896640778,0.8199999928474426,0.13620242476463318,0.7799999713897705
0.12312664091587067,0.8100000023841858,0.13646258413791656,0.7900000214576721
0.12261095643043518,0.8100000023841858,0.13608472049236298,0.7900000214576721
0.1221076175570488,0.8199999928474426,0.1360372006893158,0.7900000214576721
0.12229278683662415,0.8299999833106995,0.13595980405807495,0.7900000214576721
0.12173447757959366,0.8299999833106995,0.1359606832265854,0.7900000214576721
0.1218707263469696,0.8299999833106995,0.13596169650554657,0.7900000214576721
0.12114626169204712,0.8299999833106995,0.13594047725200653,0.7900000214576721
0.1215897724032402,0.8100000023841858,0.1362297236919403,0.7900000214576721
0.1214613988995552,0.8100000023841858,0.13649074733257294,0.7900000214576721
0.12140686064958572,0.8100000023841858,0.13607080280780792,0.7799999713897705
0.12110128253698349,0.8199999928474426,0.13598819077014923,0.7900000214576721
0.12112075835466385,0.8399999737739563,0.13620120286941528,0.7900000214576721
0.1210392639040947,0.8399999737739563,0.1361132115125656,0.7900000214576721
0.12040434032678604,0.8500000238418579,0.13592250645160675,0.7900000214576721
0.11979532241821289,0.8299999833106995,0.13590258359909058,0.7900000214576721
0.11979100853204727,0.8100000023841858,0.13582555949687958,0.7900000214576721
0.11971961706876755,0.8100000023841858,0.13575845956802368,0.7799999713897705
0.11936882138252258,0.8199999928474426,0.13575208187103271,0.7799999713897705
0.11947297304868698,0.8299999833106995,0.13581402599811554,0.7799999713897705
0.11939436197280884,0.8199999928474426,0.13575933873653412,0.7799999713897705
0.11916908621788025,0.8299999833106995,0.13580255210399628,0.7799999713897705
0.1191931664943695,0.8199999928474426,0.13581229746341705,0.7900000214576721
0.11875543743371964,0.8100000023841858,0.13581442832946777,0.7900000214576721
0.1183372214436531,0.8100000023841858,0.13577409088611603,0.7799999713897705
0.11877479404211044,0.8399999737739563,0.1360142081975937,0.7900000214576721
0.11863717436790466,0.8399999737739563,0.1360471397638321,0.7900000214576721
0.11842641234397888,0.8399999737739563,0.13589118421077728,0.7799999713897705
0.11820469051599503,0.8100000023841858,0.13601651787757874,0.7900000214576721
0.11797012388706207,0.8100000023841858,0.13606172800064087,0.7900000214576721
0.11776724457740784,0.8100000023841858,0.13603468239307404,0.7900000214576721
0.1178101897239685,0.8100000023841858,0.1359410583972931,0.7799999713897705
0.11797519773244858,0.8100000023841858,0.13608698546886444,0.7900000214576721
0.11747077107429504,0.8100000023841858,0.1360970437526703,0.7900000214576721
0.11753413826227188,0.8100000023841858,0.13621139526367188,0.7900000214576721
0.11738865822553635,0.8100000023841858,0.13632573187351227,0.7900000214576721
0.11727265268564224,0.8100000023841858,0.1360221803188324,0.7900000214576721
0.11702881753444672,0.8100000023841858,0.13599294424057007,0.7900000214576721
0.11669781804084778,0.8100000023841858,0.13610586524009705,0.7900000214576721
0.11678317934274673,0.8100000023841858,0.13599376380443573,0.7900000214576721
0.11641917377710342,0.8100000023841858,0.1360088735818863,0.7799999713897705
0.11638423055410385,0.8199999928474426,0.13604561984539032,0.7799999713897705
0.11664676666259766,0.8399999737739563,0.13603636622428894,0.7799999713897705
0.1156744509935379,0.8299999833106995,0.1358664333820343,0.7900000214576721
0.11603257805109024,0.8100000023841858,0.1362466663122177,0.7900000214576721
0.11675255000591278,0.800000011920929,0.13644906878471375,0.7900000214576721
0.11658831685781479,0.800000011920929,0.13638921082019806,0.7900000214576721
0.11590654402971268,0.8100000023841858,0.13600049912929535,0.7900000214576721
0.11614944785833359,0.8100000023841858,0.13590334355831146,0.7900000214576721
0.11557307839393616,0.8100000023841858,0.13589732348918915,0.7900000214576721
0.11532215774059296,0.8100000023841858,0.13590386509895325,0.7900000214576721
0.11538496613502502,0.8100000023841858,0.13593445718288422,0.7900000214576721
0.11525361239910126,0.8100000023841858,0.135898157954216,0.7900000214576721
0.11540963500738144,0.8100000023841858,0.13588397204875946,0.7900000214576721
0.11493471264839172,0.8100000023841858,0.13591931760311127,0.7900000214576721
0.11485827714204788,0.8100000023841858,0.13594254851341248,0.7900000214576721
0.11481074243783951,0.8100000023841858,0.13599126040935516,0.7900000214576721
0.11454311013221741,0.8100000023841858,0.1360580325126648,0.7900000214576721
0.11508852243423462,0.8100000023841858,0.13642115890979767,0.800000011920929
0.11460849642753601,0.8100000023841858,0.1363750398159027,0.800000011920929
0.11430902779102325,0.8100000023841858,0.13630367815494537,0.7900000214576721
0.11425451189279556,0.8100000023841858,0.13628578186035156,0.7900000214576721
0.11422527581453323,0.8100000023841858,0.1364346444606781,0.7900000214576721
0.1143878772854805,0.8199999928474426,0.13652077317237854,0.7799999713897705
0.11538952589035034,0.8500000238418579,0.1372092366218567,0.800000011920929
0.11546315252780914,0.8500000238418579,0.13657991588115692,0.7799999713897705
0.11462735384702682,0.8100000023841858,0.1362583190202713,0.7900000214576721
0.11376237869262695,0.8100000023841858,0.13625384867191315,0.7900000214576721
0.11354555189609528,0.8100000023841858,0.13649873435497284,0.800000011920929
0.1135948970913887,0.8100000023841858,0.13647966086864471,0.800000011920929
0.1134360060095787,0.8100000023841858,0.13650226593017578,0.800000011920929
0.11345329880714417,0.8100000023841858,0.1365920752286911,0.800000011920929
0.11334547400474548,0.8100000023841858,0.1363793909549713,0.800000011920929
0.11318894475698471,0.8100000023841858,0.13640643656253815,0.7900000214576721
0.11306435614824295,0.8100000023841858,0.13625800609588623,0.7900000214576721
0.11317290365695953,0.8100000023841858,0.13623154163360596,0.800000011920929
0.11318384110927582,0.8100000023841858,0.13618621230125427,0.800000011920929
0.11283529549837112,0.8100000023841858,0.1361829787492752,0.800000011920929
0.1125769391655922,0.8100000023841858,0.13616904616355896,0.800000011920929
0.11254020035266876,0.8100000023841858,0.1362106204032898,0.800000011920929
0.11239265650510788,0.8100000023841858,0.13620911538600922,0.800000011920929
0.11255127936601639,0.8100000023841858,0.13621598482131958,0.800000011920929
0.11228186637163162,0.8100000023841858,0.13622534275054932,0.800000011920929
0.11216513812541962,0.8100000023841858,0.1362670660018921,0.800000011920929
0.1123204231262207,0.8100000023841858,0.13630864024162292,0.800000011920929
0.11227080225944519,0.8100000023841858,0.13635896146297455,0.7900000214576721
0.1121736615896225,0.8199999928474426,0.1364888995885849,0.7900000214576721
0.11248323321342468,0.8299999833106995,0.13650453090667725,0.7900000214576721
0.11224588751792908,0.8199999928474426,0.13635270297527313,0.800000011920929
0.11212673783302307,0.8199999928474426,0.1362672597169876,0.800000011920929
0.11191593110561371,0.8100000023841858,0.13616332411766052,0.800000011920929
0.11151937395334244,0.8100000023841858,0.13623453676700592,0.800000011920929
0.11180254817008972,0.8100000023841858,0.13620620965957642,0.800000011920929
0.11141160875558853,0.8100000023841858,0.13616716861724854,0.800000011920929
0.11137408018112183,0.8100000023841858,0.13616588711738586,0.800000011920929
0.11135676503181458,0.800000011920929,0.13625209033489227,0.800000011920929
0.11083701997995377,0.8100000023841858,0.1361970454454422,0.800000011920929
0.11183080077171326,0.8199999928474426,0.1365601271390915,0.800000011920929
0.1114220917224884,0.8299999833106995,0.13636131584644318,0.800000011920929
0.11092241108417511,0.8199999928474426,0.136177197098732,0.800000011920929
0.11092114448547363,0.8199999928474426,0.13627608120441437,0.800000011920929
0.11075720936059952,0.8100000023841858,0.13622751832008362,0.800000011920929
0.11060547083616257,0.8100000023841858,0.1362372636795044,0.800000011920929
0.11038408428430557,0.8100000023841858,0.13631904125213623,0.800000011920929
0.11035652458667755,0.8199999928474426,0.13646972179412842,0.800000011920929
0.11096596717834473,0.8100000023841858,0.1364421248435974,0.800000011920929
0.11074461787939072,0.8100000023841858,0.13646043837070465,0.800000011920929
0.11020412296056747,0.8100000023841858,0.13646939396858215,0.800000011920929
0.11032641679048538,0.8199999928474426,0.1365828514099121,0.800000011920929
0.11023740470409393,0.8100000023841858,0.13654594123363495,0.800000011920929
0.10994705557823181,0.8100000023841858,0.13657619059085846,0.800000011920929
0.11003457009792328,0.8100000023841858,0.13655781745910645,0.800000011920929
0.10968435555696487,0.8100000023841858,0.13667309284210205,0.800000011920929
0.10978123545646667,0.8100000023841858,0.13668115437030792,0.800000011920929
0.10972936451435089,0.8100000023841858,0.13678225874900818,0.800000011920929
0.10957784950733185,0.8100000023841858,0.13682833313941956,0.800000011920929
0.10948938131332397,0.8100000023841858,0.1368670016527176,0.800000011920929
0.10945218056440353,0.8100000023841858,0.1369865983724594,0.800000011920929
0.10999388992786407,0.8100000023841858,0.13705159723758698,0.800000011920929
0.10910916328430176,0.8100000023841858,0.13721399009227753,0.800000011920929
0.1094261109828949,0.8199999928474426,0.13730841875076294,0.800000011920929
0.10934004187583923,0.8199999928474426,0.1372453272342682,0.800000011920929
0.10934589058160782,0.8100000023841858,0.1372392773628235,0.800000011920929
0.10890902578830719,0.8100000023841858,0.13727040588855743,0.800000011920929
0.10872510820627213,0.8100000023841858,0.13722628355026245,0.800000011920929
0.10869929939508438,0.8199999928474426,0.13731597363948822,0.800000011920929
0.10884694755077362,0.8199999928474426,0.13733495771884918,0.800000011920929
0.10876847058534622,0.8199999928474426,0.13737237453460693,0.800000011920929
0.10825813561677933,0.8199999928474426,0.13720732927322388,0.800000011920929
0.1079355776309967,0.8100000023841858,0.13726945221424103,0.800000011920929
0.10818853974342346,0.8100000023841858,0.13719329237937927,0.800000011920929
0.10818348079919815,0.8100000023841858,0.13713286817073822,0.800000011920929
0.10813862085342407,0.8199999928474426,0.13707610964775085,0.800000011920929
0.10774064064025879,0.8199999928474426,0.13710641860961914,0.800000011920929
0.10776370763778687,0.8199999928474426,0.1371098756790161,0.800000011920929
0.10740277171134949,0.8199999928474426,0.13720421493053436,0.800000011920929
0.10811270028352737,0.8100000023841858,0.13740704953670502,0.800000011920929
0.10794486105442047,0.8199999928474426,0.13727472722530365,0.800000011920929
0.1076037809252739,0.8199999928474426,0.1372944712638855,0.800000011920929
0.1079232469201088,0.8299999833106995,0.13746750354766846,0.800000011920929
0.10712690651416779,0.8299999833106995,0.13728567957878113,0.800000011920929
0.10705167800188065,0.8199999928474426,0.13740243017673492,0.800000011920929
0.1072043627500534,0.8199999928474426,0.1373784989118576,0.800000011920929
0.10705001652240753,0.8199999928474426,0.13741078972816467,0.800000011920929
0.10687677562236786,0.8199999928474426,0.13744810223579407,0.800000011920929
0.10879883915185928,0.8100000023841858,0.13780756294727325,0.800000011920929
0.10725139826536179,0.8199999928474426,0.13770043849945068,0.800000011920929
0.10714814811944962,0.8299999833106995,0.13764052093029022,0.800000011920929
0.10702531039714813,0.8299999833106995,0.13748106360435486,0.800000011920929
0.10652638226747513,0.8199999928474426,0.1374531239271164,0.800000011920929
0.1064653992652893,0.8199999928474426,0.13745783269405365,0.800000011920929
0.10644974559545517,0.8199999928474426,0.13739240169525146,0.800000011920929
0.10603086650371552,0.8199999928474426,0.1374637335538864,0.800000011920929
0.1081559881567955,0.8199999928474426,0.13823489844799042,0.800000011920929
0.1072012409567833,0.8299999833106995,0.13780979812145233,0.800000011920929
0.1062568873167038,0.8199999928474426,0.137570321559906,0.800000011920929
0.10561145097017288,0.8299999833106995,0.1375165581703186,0.800000011920929
0.10603877156972885,0.8199999928474426,0.13769370317459106,0.800000011920929
0.10623107850551605,0.8199999928474426,0.1376490592956543,0.800000011920929
0.1061631292104721,0.8399999737739563,0.13781456649303436,0.800000011920929
0.10598268359899521,0.8299999833106995,0.13758519291877747,0.800000011920929
0.10632941871881485,0.8199999928474426,0.1374828815460205,0.800000011920929
0.10534436255693436,0.8199999928474426,0.13749001920223236,0.800000011920929
0.1053609624505043,0.8199999928474426,0.1375236213207245,0.800000011920929
0.10519799590110779,0.8199999928474426,0.13763219118118286,0.800000011920929
0.105380579829216,0.8299999833106995,0.13790732622146606,0.800000011920929
0.10548100620508194,0.8399999737739563,0.13802021741867065,0.800000011920929
0.10536041855812073,0.8299999833106995,0.13776667416095734,0.800000011920929
0.10474535822868347,0.8199999928474426,0.13775019347667694,0.800000011920929
0.10498151928186417,0.8199999928474426,0.13773341476917267,0.800000011920929
0.10481736809015274,0.8199999928474426,0.1377575695514679,0.800000011920929
0.10473614931106567,0.8199999928474426,0.13778364658355713,0.800000011920929
0.10472879558801651,0.8299999833106995,0.137970969080925,0.800000011920929
0.10505132377147675,0.8299999833106995,0.13807544112205505,0.8100000023841858
0.10488943755626678,0.8399999737739563,0.13800948858261108,0.800000011920929
0.1046162098646164,0.8399999737739563,0.13813477754592896,0.8100000023841858
0.10457832366228104,0.8399999737739563,0.13818395137786865,0.800000011920929
0.10497822612524033,0.8299999833106995,0.13825279474258423,0.800000011920929
0.10459927469491959,0.8399999737739563,0.13794277608394623,0.800000011920929
0.10410410910844803,0.8299999833106995,0.13805539906024933,0.800000011920929
0.10407142341136932,0.8299999833106995,0.13817743957042694,0.800000011920929
0.10405106842517853,0.8299999833106995,0.13804055750370026,0.800000011920929
0.10356878489255905,0.8199999928474426,0.13792474567890167,0.800000011920929
0.10364926606416702,0.8299999833106995,0.13804323971271515,0.800000011920929
0.10370663553476334,0.8399999737739563,0.13801293075084686,0.8100000023841858
0.10368158668279648,0.8399999737739563,0.13795943558216095,0.8100000023841858
0.10379914939403534,0.8399999737739563,0.13799385726451874,0.8100000023841858
0.10353241115808487,0.8299999833106995,0.13795801997184753,0.800000011920929
0.10494871437549591,0.8299999833106995,0.13862629234790802,0.800000011920929
0.10396959632635117,0.8500000238418579,0.13852915167808533,0.800000011920929
0.104125015437603,0.8500000238418579,0.13860327005386353,0.800000011920929
0.10411283373832703,0.8399999737739563,0.1380845606327057,0.800000011920929
0.1031520739197731,0.8299999833106995,0.1381441205739975,0.800000011920929
0.10296628624200821,0.8199999928474426,0.13812696933746338,0.8100000023841858
0.10344341397285461,0.8399999737739563,0.1383507400751114,0.800000011920929
0.10350785404443741,0.8399999737739563,0.13805419206619263,0.800000011920929
0.10274312645196915,0.8399999737739563,0.1380712389945984,0.800000011920929
0.10261484235525131,0.8399999737739563,0.13806889951229095,0.800000011920929
0.10241566598415375,0.8399999737739563,0.1380893886089325,0.800000011920929
0.1023416817188263,0.8399999737739563,0.1380975842475891,0.800000011920929
0.10230125486850739,0.8399999737739563,0.13819076120853424,0.8100000023841858
0.10223064571619034,0.8399999737739563,0.13818810880184174,0.8100000023841858
0.10207197815179825,0.8399999737739563,0.13820940256118774,0.8100000023841858
0.10240121930837631,0.8399999737739563,0.13816307485103607,0.800000011920929
0.10214515030384064,0.8299999833106995,0.13827313482761383,0.800000011920929
0.10206618160009384,0.8299999833106995,0.13822004199028015,0.800000011920929
0.10229294002056122,0.8299999833106995,0.1381557434797287,0.800000011920929
0.10173004865646362,0.8299999833106995,0.1380336731672287,0.800000011920929
0.1015205979347229,0.8299999833106995,0.13803598284721375,0.800000011920929
0.10164379328489304,0.8399999737739563,0.13808734714984894,0.800000011920929
0.10173395276069641,0.8399999737739563,0.13797757029533386,0.800000011920929
0.10178395360708237,0.8500000238418579,0.13783317804336548,0.8100000023841858
0.10160926729440689,0.8399999737739563,0.13799242675304413,0.800000011920929
0.1020459458231926,0.8299999833106995,0.13823187351226807,0.800000011920929
0.10214146971702576,0.8299999833106995,0.1379338651895523,0.800000011920929
0.10182081907987595,0.8299999833106995,0.13815169036388397,0.800000011920929
0.1016915813088417,0.8299999833106995,0.13837170600891113,0.800000011920929
0.10198862850666046,0.8299999833106995,0.13812541961669922,0.8100000023841858
0.10087187588214874,0.8500000238418579,0.13810186088085175,0.8100000023841858
0.10088267177343369,0.8399999737739563,0.13814473152160645,0.8100000023841858
0.10089746117591858,0.8399999737739563,0.13819502294063568,0.8100000023841858
0.1004117876291275,0.8399999737739563,0.13807173073291779,0.8100000023841858
0.10042058676481247,0.8500000238418579,0.1381426900625229,0.800000011920929
0.10105262696743011,0.8399999737739563,0.13848966360092163,0.800000011920929
0.10125043243169785,0.8299999833106995,0.1384439468383789,0.800000011920929
0.10087809711694717,0.8299999833106995,0.13823240995407104,0.800000011920929
0.1003497987985611,0.8500000238418579,0.1382930427789688,0.8100000023841858
0.09989632666110992,0.8500000238418579,0.13853253424167633,0.8100000023841858
0.10053551942110062,0.8500000238418579,0.13886450231075287,0.800000011920929
0.10014989972114563,0.8500000238418579,0.13874270021915436,0.800000011920929
0.09992851316928864,0.8500000238418579,0.13882876932621002,0.800000011920929
0.0998835563659668,0.8500000238418579,0.13891668617725372,0.800000011920929
0.10004176199436188,0.8600000143051147,0.13886915147304535,0.800000011920929
0.10054279118776321,0.8500000238418579,0.13874860107898712,0.800000011920929
0.09964034706354141,0.8500000238418579,0.13879232108592987,0.8100000023841858
0.09951812028884888,0.8500000238418579,0.13881102204322815,0.8100000023841858
0.09932036697864532,0.8600000143051147,0.1390974372625351,0.8100000023841858
0.10049732029438019,0.8399999737739563,0.13957050442695618,0.7900000214576721
0.09974730759859085,0.8399999737739563,0.13906119763851166,0.8100000023841858
0.10059047490358353,0.8500000238418579,0.13898417353630066,0.800000011920929
0.09965234994888306,0.8500000238418579,0.13897615671157837,0.800000011920929
0.09970082342624664,0.8500000238418579,0.13891637325286865,0.800000011920929
0.09967337548732758,0.8600000143051147,0.13908818364143372,0.800000011920929
0.10017307102680206,0.8500000238418579,0.13887180387973785,0.8100000023841858
0.09885180741548538,0.8500000238418579,0.13892212510108948,0.8100000023841858
0.09867415577173233,0.8500000238418579,0.13904088735580444,0.8100000023841858
0.09871453046798706,0.8500000238418579,0.13914047181606293,0.8100000023841858
0.09932445734739304,0.8500000238418579,0.13910216093063354,0.8100000023841858
0.09860475361347198,0.8500000238418579,0.1391562968492508,0.8100000023841858
0.098567895591259,0.8600000143051147,0.139261856675148,0.8100000023841858
0.09862034767866135,0.8600000143051147,0.13923396170139313,0.8100000023841858
0.09911646693944931,0.8500000238418579,0.13906973600387573,0.8100000023841858
0.09844957292079926,0.8500000238418579,0.13906562328338623,0.8100000023841858
0.09825238585472107,0.8500000238418579,0.13914120197296143,0.8100000023841858
0.09852786362171173,0.8500000238418579,0.13917778432369232,0.8100000023841858
0.09844643622636795,0.8500000238418579,0.13917763531208038,0.8100000023841858
0.09817137569189072,0.8500000238418579,0.13933095335960388,0.8100000023841858
0.09807750582695007,0.8600000143051147,0.13956701755523682,0.8100000023841858
0.0979568362236023,0.8600000143051147,0.13938048481941223,0.8100000023841858
0.09771077334880829,0.8500000238418579,0.13928289711475372,0.8100000023841858
0.09771255403757095,0.8500000238418579,0.13930557668209076,0.8100000023841858
0.09819028526544571,0.8500000238418579,0.1394100785255432,0.800000011920929
0.09768421947956085,0.8600000143051147,0.13938432931900024,0.8100000023841858
0.09740138798952103,0.8500000238418579,0.13943736255168915,0.8100000023841858
0.09752660989761353,0.8700000047683716,0.13985443115234375,0.8100000023841858
0.09782170504331589,0.8600000143051147,0.1402774155139923,0.7900000214576721
0.09847739338874817,0.8600000143051147,0.13990382850170135,0.8100000023841858
0.09745646268129349,0.8600000143051147,0.13984037935733795,0.8100000023841858
0.09757325798273087,0.8500000238418579,0.13985715806484222,0.8100000023841858
0.09763649106025696,0.8500000238418579,0.14027699828147888,0.800000011920929
0.09740030020475388,0.8500000238418579,0.14039236307144165,0.800000011920929
0.09739988297224045,0.8600000143051147,0.14028173685073853,0.800000011920929
0.09699815511703491,0.8600000143051147,0.14013370871543884,0.8100000023841858
0.09700480103492737,0.8600000143051147,0.14005842804908752,0.8100000023841858
0.09698386490345001,0.8500000238418579,0.14005693793296814,0.8100000023841858
0.09696263074874878,0.8500000238418579,0.1400524079799652,0.8100000023841858
0.09675972163677216,0.8500000238418579,0.14011043310165405,0.800000011920929
0.09724777936935425,0.8500000238418579,0.14023487269878387,0.800000011920929
0.09650775790214539,0.8500000238418579,0.1401831954717636,0.8100000023841858
0.09640054404735565,0.8600000143051147,0.14039720594882965,0.800000011920929
0.09686476737260818,0.8700000047683716,0.14043566584587097,0.800000011920929
0.09811505675315857,0.8500000238418579,0.13998611271381378,0.800000011920929
0.09651532769203186,0.8500000238418579,0.14002268016338348,0.8100000023841858
0.09644941985607147,0.8600000143051147,0.13986672461032867,0.8100000023841858
0.0967637225985527,0.8600000143051147,0.13989342749118805,0.8100000023841858
0.09638994932174683,0.8500000238418579,0.1398308128118515,0.8100000023841858
0.09605090320110321,0.8600000143051147,0.1398339420557022,0.8100000023841858
0.0961606428027153,0.8600000143051147,0.1398337036371231,0.8100000023841858
0.09579060226678848,0.8700000047683716,0.13971228897571564,0.8100000023841858
0.09590127319097519,0.8600000143051147,0.13970452547073364,0.8100000023841858
0.09643861651420593,0.8600000143051147,0.13974007964134216,0.8100000023841858
0.09580997377634048,0.8700000047683716,0.13972999155521393,0.8100000023841858
0.09649420529603958,0.8700000047683716,0.1398593634366989,0.800000011920929
0.09606307744979858,0.8600000143051147,0.13955296576023102,0.8100000023841858
0.09557462483644485,0.8600000143051147,0.13964083790779114,0.800000011920929
0.09568566083908081,0.8600000143051147,0.13965554535388947,0.8100000023841858
0.09517478197813034,0.8600000143051147,0.13973884284496307,0.8100000023841858
0.09541205316781998,0.8700000047683716,0.1398899406194687,0.8100000023841858
0.09530561417341232,0.8700000047683716,0.1398838460445404,0.8100000023841858
0.09520720690488815,0.8600000143051147,0.13990068435668945,0.8100000023841858
0.09525387734174728,0.8700000047683716,0.1399606168270111,0.8100000023841858
0.09592319279909134,0.8600000143051147,0.1400546431541443,0.800000011920929
0.09508442878723145,0.8600000143051147,0.140083909034729,0.8100000023841858
0.09506481140851974,0.8600000143051147,0.14013241231441498,0.8100000023841858
0.09528981149196625,0.8700000047683716,0.14021418988704681,0.8100000023841858
0.09485107660293579,0.8700000047683716,0.1401558816432953,0.8100000023841858
0.0948711559176445,0.8600000143051147,0.1400558352470398,0.8100000023841858
0.09493984282016754,0.8600000143051147,0.1400841772556305,0.8100000023841858
0.09444348514080048,0.8700000047683716,0.1403639167547226,0.800000011920929
0.09538988769054413,0.8700000047683716,0.14136581122875214,0.800000011920929
0.09578077495098114,0.8700000047683716,0.140900120139122,0.7900000214576721
0.09543051570653915,0.8700000047683716,0.14064200222492218,0.800000011920929
0.094597727060318,0.8600000143051147,0.14067882299423218,0.800000011920929
0.09445364773273468,0.8600000143051147,0.14066067337989807,0.800000011920929
0.09519143402576447,0.8700000047683716,0.1407615691423416,0.800000011920929
0.09453901648521423,0.8600000143051147,0.1407318264245987,0.800000011920929
0.09435830265283585,0.8600000143051147,0.14069408178329468,0.800000011920929
0.0949043482542038,0.8600000143051147,0.1408948302268982,0.800000011920929
0.09448391944169998,0.8700000047683716,0.14066201448440552,0.800000011920929
0.09427281469106674,0.8600000143051147,0.14067669212818146,0.800000011920929
0.09447652846574783,0.8700000047683716,0.14123059809207916,0.7900000214576721
0.09473241120576859,0.8700000047683716,0.1412958800792694,0.7900000214576721
0.094504214823246,0.8799999952316284,0.1411735713481903,0.7900000214576721
0.09446532279253006,0.8799999952316284,0.14114190638065338,0.800000011920929
0.09407806396484375,0.8700000047683716,0.14092902839183807,0.800000011920929
0.09449763596057892,0.8700000047683716,0.14093005657196045,0.8100000023841858
0.09382124245166779,0.8700000047683716,0.14118298888206482,0.800000011920929
0.09371919929981232,0.8700000047683716,0.14108076691627502,0.800000011920929
0.09444732964038849,0.8700000047683716,0.1410381942987442,0.8100000023841858
0.09363510459661484,0.8700000047683716,0.14098910987377167,0.800000011920929
0.09402313828468323,0.8700000047683716,0.1409788727760315,0.8100000023841858
0.09434137493371964,0.8799999952316284,0.14114965498447418,0.800000011920929
0.09386022388935089,0.8799999952316284,0.14098167419433594,0.8100000023841858
0.09376151114702225,0.8799999952316284,0.1410990059375763,0.8100000023841858
0.09348692744970322,0.8600000143051147,0.14103813469409943,0.8100000023841858
0.09339317679405212,0.8700000047683716,0.14110620319843292,0.8100000023841858
0.09439685940742493,0.8799999952316284,0.14136390388011932,0.800000011920929
0.09350967407226562,0.8700000047683716,0.14148813486099243,0.7900000214576721
0.09327542036771774,0.8799999952316284,0.1413428634405136,0.800000011920929
0.09322237223386765,0.8799999952316284,0.1412554234266281,0.8100000023841858
0.09323378652334213,0.8799999952316284,0.14126957952976227,0.8100000023841858
0.09297751635313034,0.8799999952316284,0.14137499034404755,0.8100000023841858
0.09289100766181946,0.8700000047683716,0.14146243035793304,0.8100000023841858
0.09282895922660828,0.8799999952316284,0.14156849682331085,0.800000011920929
0.09283031523227692,0.8799999952316284,0.1416512131690979,0.800000011920929
0.09250000864267349,0.8700000047683716,0.14148980379104614,0.8100000023841858
0.09264510124921799,0.8700000047683716,0.14159731566905975,0.800000011920929
0.09275973588228226,0.8600000143051147,0.14164261519908905,0.8100000023841858
0.09271229803562164,0.8700000047683716,0.1416913866996765,0.8100000023841858
0.09244095534086227,0.8700000047683716,0.14170889556407928,0.8100000023841858
0.09271149337291718,0.8700000047683716,0.14184018969535828,0.800000011920929
0.09254895895719528,0.8700000047683716,0.14166101813316345,0.8100000023841858
0.09259877353906631,0.8799999952316284,0.1416584700345993,0.800000011920929
0.09262984991073608,0.8799999952316284,0.1418692022562027,0.7900000214576721
0.09238661825656891,0.8799999952316284,0.14169840514659882,0.800000011920929
0.09174925833940506,0.8799999952316284,0.14144712686538696,0.8100000023841858
0.09223298728466034,0.8700000047683716,0.1417473405599594,0.800000011920929
0.0928177535533905,0.8500000238418579,0.1416400969028473,0.8100000023841858
0.09239687770605087,0.8799999952316284,0.1416749358177185,0.8100000023841858
0.09182857722043991,0.8799999952316284,0.14172889292240143,0.8100000023841858
0.0923047810792923,0.8799999952316284,0.14181309938430786,0.800000011920929
0.09213642030954361,0.8600000143051147,0.14191259443759918,0.800000011920929
0.09236898273229599,0.8600000143051147,0.1417192965745926,0.800000011920929
0.09179196506738663,0.8799999952316284,0.14157992601394653,0.800000011920929
0.09165194630622864,0.8799999952316284,0.14166973531246185,0.800000011920929
0.09170951694250107,0.8799999952316284,0.14162804186344147,0.800000011920929
0.09162625670433044,0.8799999952316284,0.14170080423355103,0.800000011920929
0.09135617315769196,0.8799999952316284,0.14213956892490387,0.7900000214576721
0.09198186546564102,0.8799999952316284,0.14211666584014893,0.7900000214576721
0.09125014394521713,0.8799999952316284,0.14172394573688507,0.800000011920929
0.09080614149570465,0.8799999952316284,0.14186473190784454,0.800000011920929
0.09202636033296585,0.8600000143051147,0.14189597964286804,0.800000011920929
0.09259451925754547,0.8600000143051147,0.1421104073524475,0.7900000214576721
0.09240572154521942,0.8600000143051147,0.14171673357486725,0.800000011920929
0.0914323627948761,0.8700000047683716,0.14172004163265228,0.800000011920929
0.09172281622886658,0.8700000047683716,0.14172318577766418,0.800000011920929
0.09202387928962708,0.8799999952316284,0.14151844382286072,0.8100000023841858
0.09120197594165802,0.8799999952316284,0.1415804922580719,0.800000011920929
0.09126006066799164,0.8700000047683716,0.14154811203479767,0.800000011920929
0.09075886011123657,0.8700000047683716,0.14144998788833618,0.800000011920929
0.09103590995073318,0.8799999952316284,0.14161241054534912,0.800000011920929
0.09080345183610916,0.8799999952316284,0.14156512916088104,0.800000011920929
0.09063999354839325,0.8799999952316284,0.1416270136833191,0.800000011920929
0.09052658081054688,0.8799999952316284,0.14182110130786896,0.800000011920929
0.09175511449575424,0.8899999856948853,0.14281190931797028,0.800000011920929
0.09190469980239868,0.8899999856948853,0.14252786338329315,0.7900000214576721
0.09180895984172821,0.8899999856948853,0.1425815373659134,0.7900000214576721
0.09128856658935547,0.8899999856948853,0.142203688621521,0.7900000214576721
0.0907992422580719,0.8799999952316284,0.1419401615858078,0.800000011920929
0.09189800173044205,0.8700000047683716,0.1419345736503601,0.800000011920929
0.09129974991083145,0.8600000143051147,0.1419517546892166,0.800000011920929
0.0917850211262703,0.8700000047683716,0.14154842495918274,0.7900000214576721
0.09023991227149963,0.8799999952316284,0.1414630264043808,0.7900000214576721
0.09028073400259018,0.8700000047683716,0.1415235847234726,0.800000011920929
0.09014895558357239,0.8799999952316284,0.1415605992078781,0.800000011920929
0.09026239067316055,0.8799999952316284,0.14160700142383575,0.800000011920929
0.09087769687175751,0.8799999952316284,0.1418634057044983,0.7900000214576721
0.09013199806213379,0.8799999952316284,0.14167127013206482,0.800000011920929
0.09004605561494827,0.8799999952316284,0.14174799621105194,0.800000011920929
0.09068872779607773,0.8799999952316284,0.14252157509326935,0.800000011920929
0.09197937697172165,0.8899999856948853,0.14338789880275726,0.800000011920929
0.09169444441795349,0.8899999856948853,0.14301997423171997,0.800000011920929
0.09065740555524826,0.8899999856948853,0.14250054955482483,0.7900000214576721
0.08957262337207794,0.8899999856948853,0.14216101169586182,0.800000011920929
0.09069422632455826,0.8799999952316284,0.1422564685344696,0.7900000214576721
0.08986162394285202,0.8799999952316284,0.14231467247009277,0.7900000214576721
0.08967460691928864,0.8799999952316284,0.14237746596336365,0.7900000214576721
0.09020090848207474,0.8799999952316284,0.14237061142921448,0.7900000214576721
0.08948995918035507,0.8799999952316284,0.1423526108264923,0.800000011920929
0.08937432616949081,0.8799999952316284,0.14229516685009003,0.7900000214576721
0.08988230675458908,0.8700000047683716,0.14270323514938354,0.7900000214576721
0.09030096232891083,0.8600000143051147,0.14290784299373627,0.7900000214576721
0.08984530717134476,0.8700000047683716,0.14259502291679382,0.7900000214576721
0.08936745673418045,0.8799999952316284,0.14254389703273773,0.800000011920929
0.0891043022274971,0.8700000047683716,0.14264124631881714,0.7900000214576721
0.09047046303749084,0.8899999856948853,0.1427210569381714,0.7900000214576721
0.08910738676786423,0.8799999952316284,0.1424853503704071,0.800000011920929
0.08905863016843796,0.8899999856948853,0.14243240654468536,0.7900000214576721
0.08918925374746323,0.8799999952316284,0.14238299429416656,0.7900000214576721
0.08915060013532639,0.8799999952316284,0.14241483807563782,0.800000011920929
0.08909901976585388,0.8799999952316284,0.1425703465938568,0.800000011920929
0.08942296355962753,0.8799999952316284,0.14262203872203827,0.800000011920929
0.08901648223400116,0.8799999952316284,0.14270257949829102,0.7900000214576721
0.08878312259912491,0.8799999952316284,0.14267630875110626,0.800000011920929
0.08927038311958313,0.8799999952316284,0.14278551936149597,0.800000011920929
0.08875831961631775,0.8799999952316284,0.14271706342697144,0.800000011920929
0.08930763602256775,0.8799999952316284,0.14288683235645294,0.800000011920929
0.08852366358041763,0.8899999856948853,0.14270184934139252,0.800000011920929
0.08933577686548233,0.8799999952316284,0.14286239445209503,0.7900000214576721
0.0885358452796936,0.8799999952316284,0.14278335869312286,0.800000011920929
0.08868296444416046,0.8799999952316284,0.1429082155227661,0.800000011920929
0.08842888474464417,0.8799999952316284,0.1429925560951233,0.800000011920929
0.08851980417966843,0.8799999952316284,0.14296048879623413,0.800000011920929
0.08812999725341797,0.8799999952316284,0.1427525281906128,0.800000011920929
0.0883682370185852,0.8899999856948853,0.1427728831768036,0.800000011920929
0.08818845450878143,0.8899999856948853,0.1427910178899765,0.800000011920929
0.08876446634531021,0.8799999952316284,0.14275005459785461,0.800000011920929
0.08822515606880188,0.8799999952316284,0.14278289675712585,0.800000011920929
0.0880875363945961,0.8799999952316284,0.1429397016763687,0.800000011920929
0.08804153650999069,0.8899999856948853,0.1431109607219696,0.800000011920929
0.08896762877702713,0.8799999952316284,0.14370197057724,0.800000011920929
0.08989977836608887,0.8600000143051147,0.14379477500915527,0.800000011920929
0.08942154794931412,0.8600000143051147,0.14346061646938324,0.800000011920929
0.08873733878135681,0.8700000047683716,0.14292359352111816,0.800000011920929
0.08770877122879028,0.8799999952316284,0.14263972640037537,0.800000011920929
0.08760329335927963,0.8899999856948853,0.14261147379875183,0.800000011920929
0.08806930482387543,0.8799999952316284,0.14255161583423615,0.7900000214576721
0.0879044458270073,0.8799999952316284,0.14258961379528046,0.7900000214576721
0.08824063092470169,0.8899999856948853,0.1428413838148117,0.7900000214576721
0.08792489767074585,0.8899999856948853,0.1425851732492447,0.7900000214576721
0.08724887669086456,0.8799999952316284,0.1424066573381424,0.800000011920929
0.08758405596017838,0.8899999856948853,0.1426611989736557,0.800000011920929
0.08771473169326782,0.8799999952316284,0.14265578985214233,0.7900000214576721
0.08727343380451202,0.8899999856948853,0.1427019089460373,0.800000011920929
0.08721954375505447,0.8899999856948853,0.1430087685585022,0.7900000214576721
0.08793152123689651,0.8899999856948853,0.14321008324623108,0.7900000214576721
0.0877249538898468,0.8799999952316284,0.14269296824932098,0.7900000214576721
0.08725068718194962,0.8899999856948853,0.14250165224075317,0.800000011920929
0.08682461827993393,0.8799999952316284,0.14242392778396606,0.7900000214576721
0.08833973109722137,0.8700000047683716,0.14224199950695038,0.800000011920929
0.0875496119260788,0.8799999952316284,0.14188696444034576,0.7900000214576721
0.08757570385932922,0.8899999856948853,0.14203596115112305,0.7900000214576721
0.08748991042375565,0.8799999952316284,0.1419842392206192,0.7900000214576721
0.08690454810857773,0.8799999952316284,0.1418326497077942,0.7900000214576721
0.0869162306189537,0.8899999856948853,0.14179247617721558,0.7900000214576721
0.0872284471988678,0.8799999952316284,0.141757071018219,0.7900000214576721
0.08740952610969543,0.8799999952316284,0.14165739715099335,0.7900000214576721
0.08698045462369919,0.8899999856948853,0.14135800302028656,0.7900000214576721
0.0869441032409668,0.8899999856948853,0.14123325049877167,0.7900000214576721
0.08714689314365387,0.8799999952316284,0.14136233925819397,0.7900000214576721
0.08689263463020325,0.8799999952316284,0.14124108850955963,0.7900000214576721
0.08701875060796738,0.8799999952316284,0.14125339686870575,0.7900000214576721
0.08675157278776169,0.8799999952316284,0.14122796058654785,0.7799999713897705
0.08678211271762848,0.8799999952316284,0.14132781326770782,0.7799999713897705
0.0866088941693306,0.8799999952316284,0.1413808912038803,0.7900000214576721
0.08677996695041656,0.8799999952316284,0.14146307110786438,0.7900000214576721
0.08649665862321854,0.8799999952316284,0.1415490359067917,0.7799999713897705
0.08651749789714813,0.8899999856948853,0.1416134536266327,0.7799999713897705
0.08720681816339493,0.8899999856948853,0.14174897968769073,0.7900000214576721
0.08649734407663345,0.8899999856948853,0.14167693257331848,0.7799999713897705
0.08632153272628784,0.8899999856948853,0.14175041019916534,0.7900000214576721
0.08629188686609268,0.8899999856948853,0.14177578687667847,0.7900000214576721
0.08624217659235,0.8899999856948853,0.14172965288162231,0.7900000214576721
0.08629966527223587,0.8899999856948853,0.14178356528282166,0.7900000214576721
0.08639194816350937,0.8899999856948853,0.14180031418800354,0.7900000214576721
0.08626553416252136,0.8899999856948853,0.14191141724586487,0.7900000214576721
0.08647216111421585,0.8899999856948853,0.1419874131679535,0.7900000214576721
0.08612581342458725,0.8799999952316284,0.14187347888946533,0.800000011920929
0.08604994416236877,0.8799999952316284,0.14210546016693115,0.7900000214576721
0.08622603118419647,0.8899999856948853,0.14240312576293945,0.7900000214576721
0.08706691116094589,0.8899999856948853,0.14309526979923248,0.7900000214576721
0.08794451504945755,0.8899999856948853,0.14323139190673828,0.7900000214576721
0.08740966767072678,0.8899999856948853,0.14274969696998596,0.800000011920929
0.08661315590143204,0.8899999856948853,0.14251470565795898,0.7900000214576721
0.0857396349310875,0.8799999952316284,0.1420421302318573,0.7900000214576721
0.08576550334692001,0.8899999856948853,0.14202652871608734,0.7900000214576721
0.08581869304180145,0.8899999856948853,0.14208866655826569,0.7900000214576721
0.08633437007665634,0.8899999856948853,0.14186881482601166,0.7900000214576721
0.08569573611021042,0.8899999856948853,0.14178529381752014,0.7900000214576721
0.0858706682920456,0.8799999952316284,0.141989067196846,0.7900000214576721
0.08610446006059647,0.8799999952316284,0.14216986298561096,0.7900000214576721
0.0856659859418869,0.8899999856948853,0.14232653379440308,0.800000011920929
0.08569372445344925,0.8899999856948853,0.1424843966960907,0.7900000214576721
0.08558544516563416,0.8899999856948853,0.14258140325546265,0.7900000214576721
0.08610978722572327,0.8899999856948853,0.14243772625923157,0.800000011920929
0.08550309389829636,0.8899999856948853,0.1424248069524765,0.800000011920929
0.08524630218744278,0.8899999856948853,0.14236383140087128,0.7900000214576721
0.0853923037648201,0.8899999856948853,0.14230209589004517,0.7900000214576721
0.08603733032941818,0.8799999952316284,0.14240843057632446,0.7900000214576721
0.08564594388008118,0.8799999952316284,0.14243574440479279,0.7900000214576721
0.0852009654045105,0.8899999856948853,0.14243541657924652,0.7900000214576721
0.08520039916038513,0.8899999856948853,0.14237558841705322,0.7900000214576721
0.08525729179382324,0.8899999856948853,0.1423346847295761,0.7900000214576721
0.08493607491254807,0.8899999856948853,0.14231152832508087,0.7900000214576721
0.08498898148536682,0.8899999856948853,0.14217513799667358,0.7900000214576721
0.08495549857616425,0.8899999856948853,0.1421741098165512,0.7900000214576721
0.085024893283844,0.8899999856948853,0.14209744334220886,0.7900000214576721
0.08493225276470184,0.8899999856948853,0.14207395911216736,0.800000011920929
0.08486825227737427,0.8899999856948853,0.14203588664531708,0.7900000214576721
0.08488349616527557,0.8899999856948853,0.14203275740146637,0.800000011920929
0.08494347333908081,0.8899999856948853,0.14220581948757172,0.7900000214576721
0.08488373458385468,0.8899999856948853,0.14225821197032928,0.7900000214576721
0.08478605002164841,0.8899999856948853,0.14228105545043945,0.800000011920929
0.08458039164543152,0.8899999856948853,0.1423005312681198,0.7900000214576721
0.084518201649189,0.8799999952316284,0.14270949363708496,0.7900000214576721
0.08547595888376236,0.8899999856948853,0.14327266812324524,0.7900000214576721
0.08550246059894562,0.8899999856948853,0.1432534009218216,0.7900000214576721
0.08543705195188522,0.8899999856948853,0.14338529109954834,0.7900000214576721
0.0856359452009201,0.8899999856948853,0.14273199439048767,0.7900000214576721
0.08458030968904495,0.8999999761581421,0.14287014305591583,0.800000011920929
0.0850730910897255,0.8999999761581421,0.14297716319561005,0.800000011920929
0.08463454246520996,0.8999999761581421,0.14261826872825623,0.7900000214576721
0.08421727269887924,0.8999999761581421,0.14237870275974274,0.7900000214576721
0.08430829644203186,0.8799999952316284,0.1422499567270279,0.7900000214576721
0.08425582200288773,0.8899999856948853,0.14216797053813934,0.7900000214576721
0.08448228985071182,0.8899999856948853,0.14208582043647766,0.7799999713897705
0.08405160903930664,0.8899999856948853,0.14204129576683044,0.7900000214576721
0.08447061479091644,0.8899999856948853,0.1421106457710266,0.7900000214576721
0.08391422033309937,0.8899999856948853,0.141950324177742,0.7900000214576721
0.08540946990251541,0.8899999856948853,0.1424046903848648,0.800000011920929
0.08478331565856934,0.8899999856948853,0.14211706817150116,0.800000011920929
0.08467946946620941,0.8899999856948853,0.14158809185028076,0.7900000214576721
0.083832748234272,0.8899999856948853,0.14155730605125427,0.7900000214576721
0.0837777778506279,0.8899999856948853,0.14161831140518188,0.7900000214576721
0.08446522057056427,0.8799999952316284,0.14166738092899323,0.7900000214576721
0.08398868888616562,0.8899999856948853,0.14150883257389069,0.7900000214576721
0.08424472063779831,0.8899999856948853,0.1413276046514511,0.7900000214576721
0.08362378925085068,0.8899999856948853,0.14139729738235474,0.7900000214576721
0.08397986739873886,0.8999999761581421,0.14154431223869324,0.7900000214576721
0.08348403126001358,0.8899999856948853,0.14106044173240662,0.7900000214576721
0.08410900831222534,0.8899999856948853,0.1409907042980194,0.7900000214576721
0.08402806520462036,0.8799999952316284,0.1410192996263504,0.7900000214576721
0.08384250849485397,0.8899999856948853,0.1407412439584732,0.7900000214576721
0.08338715881109238,0.8899999856948853,0.14117872714996338,0.800000011920929
0.0841061994433403,0.8899999856948853,0.14170822501182556,0.7900000214576721
0.08398188650608063,0.8899999856948853,0.1412629932165146,0.800000011920929
0.08346458524465561,0.8899999856948853,0.1409274935722351,0.7900000214576721
0.08357259631156921,0.8899999856948853,0.14082284271717072,0.7799999713897705
0.08364707976579666,0.8899999856948853,0.14102043211460114,0.7900000214576721
0.083385169506073,0.8999999761581421,0.14097672700881958,0.7900000214576721
0.08318144828081131,0.8999999761581421,0.14106765389442444,0.7900000214576721
0.08313871175050735,0.8999999761581421,0.14107200503349304,0.7900000214576721
0.08386025577783585,0.8999999761581421,0.14123420417308807,0.800000011920929
0.08285164088010788,0.8999999761581421,0.1410023272037506,0.7799999713897705
0.08282932639122009,0.8899999856948853,0.1409907042980194,0.7799999713897705
0.08322980999946594,0.8799999952316284,0.14110253751277924,0.7900000214576721
0.08343397825956345,0.8799999952316284,0.14085359871387482,0.7799999713897705
0.08311054855585098,0.8899999856948853,0.14094211161136627,0.7900000214576721
0.08300584554672241,0.8999999761581421,0.14116670191287994,0.7900000214576721
0.08342252671718597,0.8999999761581421,0.14147219061851501,0.800000011920929
0.0830601304769516,0.8999999761581421,0.14125262200832367,0.7900000214576721
0.08281514793634415,0.8999999761581421,0.14115670323371887,0.7900000214576721
0.08354891091585159,0.8799999952316284,0.1413208246231079,0.7799999713897705
0.08303460478782654,0.8899999856948853,0.1414482146501541,0.7900000214576721
0.08300664275884628,0.8999999761581421,0.14148351550102234,0.7900000214576721
0.08296666294336319,0.8999999761581421,0.14155733585357666,0.800000011920929
0.08264163881540298,0.8999999761581421,0.14148707687854767,0.7900000214576721
0.08245591819286346,0.8999999761581421,0.14144279062747955,0.7799999713897705
0.08255389332771301,0.8899999856948853,0.14140737056732178,0.7799999713897705
0.08240966498851776,0.8899999856948853,0.1414235532283783,0.7900000214576721
0.08247856795787811,0.8899999856948853,0.14146481454372406,0.7900000214576721
0.08254623413085938,0.8899999856948853,0.14139141142368317,0.7900000214576721
0.08230952173471451,0.8899999856948853,0.14142096042633057,0.7799999713897705
0.08266963064670563,0.8899999856948853,0.14147382974624634,0.7900000214576721
0.08256353437900543,0.8899999856948853,0.14134663343429565,0.7900000214576721
0.08267032355070114,0.8899999856948853,0.14126025140285492,0.7799999713897705
0.08252283930778503,0.8899999856948853,0.14146305620670319,0.7900000214576721
0.08254673331975937,0.8899999856948853,0.14133767783641815,0.7799999713897705
0.08211275935173035,0.8899999856948853,0.14120931923389435,0.7799999713897705
0.08206555992364883,0.8899999856948853,0.14108425378799438,0.7799999713897705
0.081813745200634,0.8999999761581421,0.14120347797870636,0.7900000214576721
0.08205055445432663,0.8999999761581421,0.14147859811782837,0.800000011920929
0.08218982815742493,0.8999999761581421,0.14153482019901276,0.800000011920929
0.08196502923965454,0.8999999761581421,0.14132051169872284,0.7900000214576721
0.08185280114412308,0.8999999761581421,0.14120329916477203,0.7900000214576721
0.08185212314128876,0.8899999856948853,0.14118747413158417,0.7799999713897705
0.08206743001937866,0.8899999856948853,0.14138063788414001,0.7900000214576721
0.08179385960102081,0.8999999761581421,0.1412792056798935,0.7900000214576721
0.08173295855522156,0.8999999761581421,0.14131364226341248,0.7900000214576721
0.0818769708275795,0.8999999761581421,0.14121001958847046,0.7900000214576721
0.08167563378810883,0.8999999761581421,0.14116737246513367,0.7900000214576721
0.08153796195983887,0.8999999761581421,0.14118915796279907,0.7900000214576721
0.0814879983663559,0.8999999761581421,0.14106671512126923,0.7900000214576721
0.0813557505607605,0.8999999761581421,0.1410083770751953,0.7799999713897705
0.08172111213207245,0.8899999856948853,0.14108066260814667,0.7900000214576721
0.08208420127630234,0.8999999761581421,0.141384556889534,0.800000011920929
0.08152542263269424,0.8999999761581421,0.14127831161022186,0.800000011920929
0.08141113072633743,0.8999999761581421,0.14120103418827057,0.7900000214576721
0.08151867240667343,0.8999999761581421,0.14117644727230072,0.7900000214576721
0.08106239140033722,0.8899999856948853,0.14114132523536682,0.7900000214576721
0.08197245746850967,0.8799999952316284,0.1412408947944641,0.7900000214576721
0.08203329890966415,0.8799999952316284,0.14077889919281006,0.7900000214576721
0.08164052665233612,0.8799999952316284,0.14054735004901886,0.7799999713897705
0.08157221972942352,0.8899999856948853,0.14043612778186798,0.7799999713897705
0.08113300055265427,0.8899999856948853,0.14049677550792694,0.7799999713897705
0.08116034418344498,0.8899999856948853,0.14053559303283691,0.7799999713897705
0.08101395517587662,0.8899999856948853,0.14059127867221832,0.7900000214576721
0.08110813796520233,0.8999999761581421,0.14065489172935486,0.7900000214576721
0.08099642395973206,0.8899999856948853,0.14071844518184662,0.7799999713897705
0.08093152195215225,0.8899999856948853,0.14075900614261627,0.7799999713897705
0.08111605048179626,0.8999999761581421,0.1409003585577011,0.7900000214576721
0.0809422954916954,0.8999999761581421,0.14105471968650818,0.7799999713897705
0.08108780533075333,0.8999999761581421,0.14113439619541168,0.7900000214576721
0.08095260709524155,0.8999999761581421,0.14116354286670685,0.7799999713897705
0.08074119687080383,0.8899999856948853,0.14118508994579315,0.7799999713897705
0.08080185204744339,0.8899999856948853,0.14132656157016754,0.7799999713897705
0.08065444231033325,0.8899999856948853,0.14140835404396057,0.7799999713897705
0.08075779676437378,0.8899999856948853,0.14149393141269684,0.7799999713897705
0.0805840864777565,0.8899999856948853,0.1415245085954666,0.7799999713897705
0.08055999130010605,0.8999999761581421,0.1416756510734558,0.7900000214576721
0.08062192052602768,0.8999999761581421,0.14160992205142975,0.7900000214576721
0.08023884147405624,0.8999999761581421,0.1416226476430893,0.7799999713897705
0.08073735982179642,0.8799999952316284,0.14169827103614807,0.7900000214576721
0.07997292280197144,0.8899999856948853,0.14150744676589966,0.7900000214576721
0.08058764785528183,0.8999999761581421,0.1421019434928894,0.7900000214576721
0.08103124797344208,0.8999999761581421,0.1417514681816101,0.7900000214576721
0.08071552217006683,0.8999999761581421,0.14147892594337463,0.800000011920929
0.08032489567995071,0.8999999761581421,0.14147624373435974,0.800000011920929
0.08074881881475449,0.8999999761581421,0.1413460671901703,0.7799999713897705
0.08024760335683823,0.8899999856948853,0.14146800339221954,0.7799999713897705
0.08026313781738281,0.8899999856948853,0.14139340817928314,0.7799999713897705
0.08051435649394989,0.8999999761581421,0.14116153120994568,0.7900000214576721
0.08007873594760895,0.8999999761581421,0.14103847742080688,0.7900000214576721
0.08016128838062286,0.8999999761581421,0.1410200148820877,0.7900000214576721
0.08020827174186707,0.8999999761581421,0.14086167514324188,0.7799999713897705
0.08103697001934052,0.8799999952316284,0.14085747301578522,0.7799999713897705
0.07988378405570984,0.8899999856948853,0.14072556793689728,0.7799999713897705
0.07971595227718353,0.8999999761581421,0.1403757929801941,0.7900000214576721
0.0797506719827652,0.8999999761581421,0.1403883546590805,0.7900000214576721
0.07976601272821426,0.8999999761581421,0.14037175476551056,0.7900000214576721
0.07949085533618927,0.8999999761581421,0.14038056135177612,0.7799999713897705
0.07966987788677216,0.8899999856948853,0.14051364362239838,0.7799999713897705
0.0798158198595047,0.8899999856948853,0.1405455619096756,0.7799999713897705
0.0798623263835907,0.8999999761581421,0.14046229422092438,0.7799999713897705
0.07946274429559708,0.8999999761581421,0.14037327468395233,0.7799999713897705
0.07981875538825989,0.8899999856948853,0.1403135061264038,0.7799999713897705
0.07945185154676437,0.8899999856948853,0.14034327864646912,0.7799999713897705
0.07966390252113342,0.8899999856948853,0.14050740003585815,0.7799999713897705
0.07936547696590424,0.8899999856948853,0.1405581831932068,0.7799999713897705
0.07953920215368271,0.8899999856948853,0.14058536291122437,0.7799999713897705
0.0802793800830841,0.8799999952316284,0.1406375914812088,0.7799999713897705
0.07962220907211304,0.8799999952316284,0.1403030902147293,0.7799999713897705
0.07918085902929306,0.8899999856948853,0.1402052491903305,0.7799999713897705
0.07908559590578079,0.8999999761581421,0.1402454525232315,0.800000011920929
0.07904607057571411,0.8999999761581421,0.14050959050655365,0.800000011920929
0.07976537942886353,0.8999999761581421,0.1409989595413208,0.7900000214576721
0.07938666641712189,0.8999999761581421,0.1405518352985382,0.800000011920929
0.07881233096122742,0.8999999761581421,0.14042481780052185,0.7799999713897705
0.0790887102484703,0.8999999761581421,0.1404579132795334,0.7799999713897705
0.07886119931936264,0.8999999761581421,0.14044272899627686,0.7799999713897705
0.07896468043327332,0.8999999761581421,0.14049512147903442,0.800000011920929
0.07932624965906143,0.8999999761581421,0.14056023955345154,0.800000011920929
0.07894308120012283,0.8899999856948853,0.14058536291122437,0.7799999713897705
0.07953128963708878,0.8899999856948853,0.14110223948955536,0.7799999713897705
0.07956427335739136,0.8799999952316284,0.1410156488418579,0.7799999713897705
0.07936196029186249,0.8799999952316284,0.14080268144607544,0.7799999713897705
0.07890303432941437,0.8999999761581421,0.14080844819545746,0.7900000214576721
0.07876481860876083,0.8999999761581421,0.14074711501598358,0.7900000214576721
0.07886109501123428,0.8999999761581421,0.14067009091377258,0.7799999713897705
0.0789492204785347,0.8799999952316284,0.1408359557390213,0.7799999713897705
0.07922304421663284,0.8799999952316284,0.14091919362545013,0.7799999713897705
0.07931684702634811,0.8799999952316284,0.14051921665668488,0.7799999713897705
0.07865878939628601,0.8899999856948853,0.14043356478214264,0.7799999713897705
0.07896662503480911,0.8999999761581421,0.14038622379302979,0.800000011920929
0.0783204510807991,0.8999999761581421,0.14029812812805176,0.7900000214576721
0.0790858194231987,0.8899999856948853,0.14021705090999603,0.7799999713897705
0.07861274480819702,0.8999999761581421,0.14046892523765564,0.7799999713897705
0.07868514955043793,0.8999999761581421,0.1406172215938568,0.7799999713897705
0.07815901935100555,0.8999999761581421,0.14093439280986786,0.7900000214576721
0.07825034856796265,0.8999999761581421,0.14112621545791626,0.800000011920929
0.0784890204668045,0.8999999761581421,0.14097627997398376,0.800000011920929
0.07807345688343048,0.8999999761581421,0.14066138863563538,0.7900000214576721
0.07763715088367462,0.8999999761581421,0.140452042222023,0.7799999713897705
0.07808572798967361,0.8999999761581421,0.14034231007099152,0.7799999713897705
0.07792627066373825,0.8999999761581421,0.1400546133518219,0.7900000214576721
0.07797574996948242,0.8999999761581421,0.14024698734283447,0.800000011920929
0.078077033162117,0.8999999761581421,0.14029882848262787,0.800000011920929
0.07840675115585327,0.8999999761581421,0.140303373336792,0.8100000023841858
0.07791940867900848,0.8999999761581421,0.14005376398563385,0.800000011920929
0.07791347801685333,0.8999999761581421,0.14017370343208313,0.8100000023841858
0.07785668224096298,0.8999999761581421,0.1402243673801422,0.8100000023841858
0.07796237617731094,0.8999999761581421,0.14008097350597382,0.7799999713897705
0.07830528914928436,0.8999999761581421,0.1402207612991333,0.8100000023841858
0.07720067352056503,0.8999999761581421,0.140293687582016,0.7799999713897705
0.07765216380357742,0.8899999856948853,0.14037273824214935,0.7799999713897705
0.0777897983789444,0.8799999952316284,0.14033682644367218,0.7799999713897705
0.07832145690917969,0.8999999761581421,0.14058427512645721,0.800000011920929
0.07769162952899933,0.8999999761581421,0.1404937207698822,0.800000011920929
0.0781286358833313,0.8999999761581421,0.14028531312942505,0.8100000023841858
0.07814625650644302,0.8999999761581421,0.1406870186328888,0.800000011920929
0.0780256912112236,0.8899999856948853,0.14052818715572357,0.8100000023841858
0.0775473490357399,0.8999999761581421,0.14027801156044006,0.800000011920929
0.07738541066646576,0.8999999761581421,0.14005404710769653,0.7799999713897705
0.07850281894207001,0.8899999856948853,0.14054666459560394,0.7900000214576721
0.07834122329950333,0.8799999952316284,0.14000669121742249,0.7799999713897705
0.07741376757621765,0.8999999761581421,0.13981904089450836,0.7799999713897705
0.07703635841608047,0.8999999761581421,0.1397731453180313,0.7900000214576721
0.07699877768754959,0.8999999761581421,0.1399659514427185,0.8100000023841858
0.07716228812932968,0.8999999761581421,0.13980133831501007,0.7900000214576721
0.07690292596817017,0.8999999761581421,0.13998030126094818,0.8100000023841858
0.07707801461219788,0.8999999761581421,0.13986247777938843,0.8100000023841858
0.07681930810213089,0.8999999761581421,0.1397460401058197,0.7900000214576721
0.0770171657204628,0.8999999761581421,0.13967305421829224,0.7900000214576721
0.07666678726673126,0.8999999761581421,0.13953997194766998,0.7900000214576721
0.07662072777748108,0.8999999761581421,0.1395813375711441,0.800000011920929
0.07658158242702484,0.8999999761581421,0.13940854370594025,0.800000011920929
0.07728815823793411,0.8999999761581421,0.13967174291610718,0.7799999713897705
0.07693001627922058,0.8799999952316284,0.13966603577136993,0.7799999713897705
0.07681813091039658,0.8999999761581421,0.13966967165470123,0.7799999713897705
0.07654270529747009,0.8999999761581421,0.1396474540233612,0.7799999713897705
0.07651104778051376,0.8999999761581421,0.13964194059371948,0.7900000214576721
0.07655948400497437,0.8999999761581421,0.1396600306034088,0.7799999713897705
0.07670395076274872,0.8999999761581421,0.13963617384433746,0.7900000214576721
0.07657694816589355,0.8999999761581421,0.1397092044353485,0.7799999713897705
0.0763552114367485,0.8999999761581421,0.13978278636932373,0.7799999713897705
0.07700612396001816,0.8799999952316284,0.13997335731983185,0.7900000214576721
0.07679064571857452,0.8799999952316284,0.13977348804473877,0.7799999713897705
0.07635459303855896,0.8899999856948853,0.1398249864578247,0.7799999713897705
0.07635802030563354,0.8999999761581421,0.1401214897632599,0.7799999713897705
0.07619037479162216,0.8999999761581421,0.14025142788887024,0.7799999713897705
0.07623109966516495,0.8999999761581421,0.1403045654296875,0.7900000214576721
0.07605826109647751,0.8999999761581421,0.140236958861351,0.7900000214576721
0.0759921595454216,0.8999999761581421,0.14043788611888885,0.7799999713897705
0.07617014646530151,0.8999999761581421,0.1404900997877121,0.7799999713897705
0.07684816420078278,0.8799999952316284,0.14038556814193726,0.7799999713897705
0.07683132588863373,0.8999999761581421,0.14028717577457428,0.800000011920929
0.07613993436098099,0.8999999761581421,0.13988937437534332,0.7900000214576721
0.0759468823671341,0.8999999761581421,0.13988904654979706,0.7799999713897705
0.07599914073944092,0.8999999761581421,0.13982506096363068,0.7900000214576721
0.07582169771194458,0.8999999761581421,0.1398211121559143,0.7900000214576721
0.07620035856962204,0.8999999761581421,0.14006224274635315,0.7799999713897705
0.07575259357690811,0.8999999761581421,0.1400648057460785,0.7900000214576721
0.07546982914209366,0.8999999761581421,0.1402834951877594,0.800000011920929
0.07584785670042038,0.8999999761581421,0.1402382254600525,0.800000011920929
0.07540979981422424,0.8999999761581421,0.14014394581317902,0.7900000214576721
0.0753437727689743,0.8999999761581421,0.14033108949661255,0.7900000214576721
0.07541805505752563,0.8999999761581421,0.14035777747631073,0.7900000214576721
0.07548283785581589,0.8999999761581421,0.14056618511676788,0.7900000214576721
0.075888492166996,0.8999999761581421,0.1407936066389084,0.800000011920929
0.07582402974367142,0.8999999761581421,0.14052945375442505,0.800000011920929
0.07564300298690796,0.8999999761581421,0.1406364142894745,0.800000011920929
0.07556208968162537,0.8999999761581421,0.1404162347316742,0.800000011920929
0.07463642954826355,0.8999999761581421,0.1400662362575531,0.7900000214576721
0.07502549886703491,0.8999999761581421,0.14013616740703583,0.7900000214576721
0.07519705593585968,0.8999999761581421,0.14016634225845337,0.7900000214576721
0.07474925369024277,0.8999999761581421,0.14024539291858673,0.800000011920929
0.07549604773521423,0.8999999761581421,0.14078469574451447,0.800000011920929
0.0763569325208664,0.8899999856948853,0.14082135260105133,0.800000011920929
0.07571611553430557,0.8899999856948853,0.1402311772108078,0.800000011920929
0.076200932264328,0.8999999761581421,0.13965363800525665,0.7900000214576721
0.07479269802570343,0.8999999761581421,0.13951101899147034,0.7900000214576721
0.07492873817682266,0.8999999761581421,0.13927757740020752,0.800000011920929
0.07472135871648788,0.8999999761581421,0.13918137550354004,0.800000011920929
0.07481198012828827,0.8999999761581421,0.13925285637378693,0.800000011920929
0.0745202898979187,0.8999999761581421,0.13894535601139069,0.800000011920929
0.07463382929563522,0.8999999761581421,0.13884109258651733,0.800000011920929
0.0745307132601738,0.8999999761581421,0.13879215717315674,0.800000011920929
0.07472673058509827,0.8999999761581421,0.13888008892536163,0.800000011920929
0.0746643990278244,0.8999999761581421,0.13856437802314758,0.800000011920929
0.07457227259874344,0.8999999761581421,0.13841219246387482,0.800000011920929
0.07438917458057404,0.8999999761581421,0.1386074423789978,0.800000011920929
0.07445685565471649,0.8999999761581421,0.13870756328105927,0.800000011920929
0.07427717745304108,0.8999999761581421,0.13885509967803955,0.800000011920929
0.07473734766244888,0.8999999761581421,0.13912376761436462,0.800000011920929
0.07425019890069962,0.8999999761581421,0.13902410864830017,0.800000011920929
0.07414259016513824,0.8999999761581421,0.138764426112175,0.800000011920929
0.0742201879620552,0.8999999761581421,0.1387578696012497,0.800000011920929
0.0741623193025589,0.8999999761581421,0.13861262798309326,0.800000011920929
0.07386331260204315,0.8999999761581421,0.1387147605419159,0.800000011920929
0.07436506450176239,0.8999999761581421,0.13917717337608337,0.800000011920929
0.07519123703241348,0.8899999856948853,0.13934513926506042,0.800000011920929
0.0748361274600029,0.8999999761581421,0.1385384500026703,0.800000011920929
0.07405155897140503,0.8999999761581421,0.1382930874824524,0.800000011920929
0.07412121444940567,0.8999999761581421,0.13858939707279205,0.800000011920929
0.07393629103899002,0.8999999761581421,0.13851973414421082,0.800000011920929
0.07391165941953659,0.8999999761581421,0.13843359053134918,0.800000011920929
0.07372771948575974,0.8999999761581421,0.13839176297187805,0.800000011920929
0.07361959666013718,0.8999999761581421,0.1383066475391388,0.800000011920929
0.07387211918830872,0.8999999761581421,0.1384287327528,0.800000011920929
0.07360394299030304,0.8999999761581421,0.13881047070026398,0.800000011920929
0.07391814887523651,0.8999999761581421,0.13867264986038208,0.800000011920929
0.07345075160264969,0.8999999761581421,0.13822579383850098,0.800000011920929
0.07367061823606491,0.8999999761581421,0.13799655437469482,0.800000011920929
0.07393800467252731,0.9200000166893005,0.13792665302753448,0.7900000214576721
0.07408054172992706,0.9200000166893005,0.13771696388721466,0.800000011920929
0.07414016872644424,0.9100000262260437,0.13776123523712158,0.800000011920929
0.07358443737030029,0.8999999761581421,0.13778790831565857,0.800000011920929
0.07352620363235474,0.8999999761581421,0.13770002126693726,0.800000011920929
0.07331720739603043,0.8999999761581421,0.13791896402835846,0.800000011920929
0.07315313071012497,0.8999999761581421,0.1379530280828476,0.800000011920929
0.07321808487176895,0.8999999761581421,0.13798654079437256,0.800000011920929
0.07313300669193268,0.8999999761581421,0.13844183087348938,0.800000011920929
0.07327006012201309,0.8999999761581421,0.13847845792770386,0.800000011920929
0.07352534681558609,0.8999999761581421,0.1382095366716385,0.800000011920929
0.07327023893594742,0.8999999761581421,0.13835683465003967,0.800000011920929
0.07288289070129395,0.8999999761581421,0.13825751841068268,0.800000011920929
0.07299758493900299,0.8999999761581421,0.13833993673324585,0.800000011920929
0.07295554876327515,0.8999999761581421,0.1386353075504303,0.7900000214576721
0.07310724258422852,0.8999999761581421,0.13855482637882233,0.800000011920929
0.07277574390172958,0.8999999761581421,0.13863711059093475,0.7900000214576721
0.07271372526884079,0.8999999761581421,0.13829326629638672,0.800000011920929
0.07260900735855103,0.8999999761581421,0.13824859261512756,0.800000011920929
0.07306716591119766,0.9200000166893005,0.138154074549675,0.800000011920929
0.072797030210495,0.9200000166893005,0.1381119191646576,0.800000011920929
0.07316283136606216,0.8999999761581421,0.13817504048347473,0.800000011920929
0.07242627441883087,0.9100000262260437,0.1382642686367035,0.800000011920929
0.07274801284074783,0.9200000166893005,0.1383345127105713,0.800000011920929
0.07271496206521988,0.9200000166893005,0.1384279876947403,0.7900000214576721
0.07316801697015762,0.9200000166893005,0.13836821913719177,0.7900000214576721
0.07259240746498108,0.9100000262260437,0.1387539952993393,0.7900000214576721
0.07241489738225937,0.8999999761581421,0.13912728428840637,0.800000011920929
0.07300568372011185,0.8899999856948853,0.13946399092674255,0.800000011920929
0.07326894253492355,0.8899999856948853,0.13924890756607056,0.800000011920929
0.07294655591249466,0.8899999856948853,0.13920852541923523,0.800000011920929
0.07288101315498352,0.8999999761581421,0.13876892626285553,0.800000011920929
0.07247976958751678,0.8999999761581421,0.13855037093162537,0.800000011920929
0.07226314395666122,0.8999999761581421,0.13848088681697845,0.800000011920929
0.07233220338821411,0.8999999761581421,0.138417050242424,0.800000011920929
0.07221204042434692,0.8999999761581421,0.13789406418800354,0.800000011920929
0.0726209431886673,0.9200000166893005,0.13782325387001038,0.800000011920929
0.0720798522233963,0.9200000166893005,0.13782039284706116,0.800000011920929
0.07210428267717361,0.9200000166893005,0.1380043923854828,0.800000011920929
0.0719384253025055,0.9100000262260437,0.13816602528095245,0.800000011920929
0.07168249785900116,0.9100000262260437,0.13827113807201385,0.7900000214576721
0.0718209445476532,0.8999999761581421,0.1384684443473816,0.7900000214576721
0.0718303695321083,0.8999999761581421,0.1382397711277008,0.7900000214576721
0.07170533388853073,0.8999999761581421,0.13791882991790771,0.800000011920929
0.07224836200475693,0.9200000166893005,0.13788262009620667,0.800000011920929
0.07157956808805466,0.9200000166893005,0.13813845813274384,0.7900000214576721
0.07290691137313843,0.8999999761581421,0.13881024718284607,0.800000011920929
0.07191821932792664,0.8899999856948853,0.13822388648986816,0.800000011920929
0.07144312560558319,0.8999999761581421,0.13794369995594025,0.7900000214576721
0.07141326367855072,0.9100000262260437,0.13805024325847626,0.800000011920929
0.07125789672136307,0.9200000166893005,0.13799668848514557,0.800000011920929
0.07126062363386154,0.9200000166893005,0.13788458704948425,0.800000011920929
0.0711885318160057,0.8999999761581421,0.13795776665210724,0.7900000214576721
0.07134446501731873,0.8999999761581421,0.13808363676071167,0.7900000214576721
0.07127248495817184,0.8999999761581421,0.13792717456817627,0.7900000214576721
0.0711861178278923,0.8999999761581421,0.13791480660438538,0.800000011920929
0.07132077217102051,0.9100000262260437,0.1378762573003769,0.800000011920929
0.07076141983270645,0.9100000262260437,0.13802456855773926,0.7900000214576721
0.07208731025457382,0.8899999856948853,0.13872459530830383,0.800000011920929
0.07129596918821335,0.8899999856948853,0.13840585947036743,0.7900000214576721
0.07113287597894669,0.9100000262260437,0.138400137424469,0.800000011920929
0.07095374912023544,0.8999999761581421,0.13835154473781586,0.800000011920929
0.07088076323270798,0.8999999761581421,0.13833564519882202,0.800000011920929
0.0708146020770073,0.9200000166893005,0.13838069140911102,0.800000011920929
0.07095310091972351,0.9200000166893005,0.13839733600616455,0.800000011920929
0.07085300981998444,0.9200000166893005,0.13825422525405884,0.800000011920929
0.07095881551504135,0.9200000166893005,0.13846491277217865,0.7900000214576721
0.07081572711467743,0.9200000166893005,0.13849158585071564,0.800000011920929
0.07073742151260376,0.9200000166893005,0.13834014534950256,0.800000011920929
0.07045305520296097,0.9200000166893005,0.13815081119537354,0.800000011920929
0.07076962292194366,0.9200000166893005,0.13797543942928314,0.800000011920929
0.07051998376846313,0.9200000166893005,0.13793699443340302,0.800000011920929
0.07048648595809937,0.9200000166893005,0.13769395649433136,0.800000011920929
0.07035598158836365,0.9200000166893005,0.13749994337558746,0.800000011920929
0.07029442489147186,0.9200000166893005,0.13751310110092163,0.800000011920929
0.07051535695791245,0.9100000262260437,0.13794788718223572,0.800000011920929
0.07040093094110489,0.8899999856948853,0.1383601874113083,0.800000011920929
0.0708407536149025,0.8899999856948853,0.13821224868297577,0.800000011920929
0.07053527235984802,0.8899999856948853,0.13793648779392242,0.7900000214576721
0.07025152444839478,0.8899999856948853,0.13765285909175873,0.800000011920929
0.07013427466154099,0.9200000166893005,0.13744212687015533,0.800000011920929
0.0701444149017334,0.9200000166893005,0.13735811412334442,0.800000011920929
0.070126473903656,0.9200000166893005,0.137464702129364,0.800000011920929
0.06997368484735489,0.9200000166893005,0.13738363981246948,0.800000011920929
0.0698806494474411,0.9200000166893005,0.13744094967842102,0.800000011920929
0.06998379528522491,0.9200000166893005,0.1373843103647232,0.800000011920929
0.07008125633001328,0.9200000166893005,0.13738040626049042,0.800000011920929
0.06974851340055466,0.9200000166893005,0.1375056505203247,0.800000011920929
0.06979910284280777,0.9200000166893005,0.13754332065582275,0.800000011920929
0.06992475688457489,0.9200000166893005,0.1375155746936798,0.800000011920929
0.06992381811141968,0.9200000166893005,0.13748346269130707,0.800000011920929
0.06989957392215729,0.9200000166893005,0.13735918700695038,0.800000011920929
0.06998640298843384,0.9200000166893005,0.13754895329475403,0.800000011920929
0.06943143159151077,0.9200000166893005,0.13755656778812408,0.800000011920929
0.06948655098676682,0.9200000166893005,0.13768260180950165,0.7900000214576721
0.06963633745908737,0.9200000166893005,0.13755445182323456,0.800000011920929
0.06940323114395142,0.9200000166893005,0.1376296877861023,0.800000011920929
0.06960304081439972,0.9200000166893005,0.13749580085277557,0.800000011920929
0.06958714127540588,0.9200000166893005,0.13753129541873932,0.8100000023841858
0.06976484507322311,0.9200000166893005,0.13750551640987396,0.8100000023841858
0.06929725408554077,0.9200000166893005,0.13763487339019775,0.800000011920929
0.06872744858264923,0.9200000166893005,0.13770192861557007,0.7900000214576721
0.06931088119745255,0.9100000262260437,0.13796618580818176,0.7900000214576721
0.06943002343177795,0.9100000262260437,0.13798345625400543,0.7900000214576721
0.06911520659923553,0.9100000262260437,0.137738898396492,0.7900000214576721
0.06889878958463669,0.9200000166893005,0.13736988604068756,0.7900000214576721
0.06906075775623322,0.9200000166893005,0.13721953332424164,0.800000011920929
0.06896534562110901,0.9200000166893005,0.1371973603963852,0.800000011920929
0.06889595836400986,0.9200000166893005,0.13741911947727203,0.7900000214576721
0.06911585479974747,0.9200000166893005,0.1372247338294983,0.7900000214576721
0.0685020461678505,0.9200000166893005,0.13732445240020752,0.7900000214576721
0.06879875808954239,0.9100000262260437,0.1374385803937912,0.7900000214576721
0.06872667372226715,0.9100000262260437,0.13753262162208557,0.7900000214576721
0.06886578351259232,0.9200000166893005,0.13758409023284912,0.800000011920929
0.06862175464630127,0.9200000166893005,0.137970432639122,0.7900000214576721
0.06860330700874329,0.9200000166893005,0.1381758451461792,0.7900000214576721
0.06867952644824982,0.9200000166893005,0.13825474679470062,0.7900000214576721
0.06885693222284317,0.8999999761581421,0.13878948986530304,0.800000011920929
0.06928429007530212,0.8999999761581421,0.13852915167808533,0.7900000214576721
0.0685601532459259,0.8999999761581421,0.13809213042259216,0.7900000214576721
0.06812527775764465,0.9200000166893005,0.13751931488513947,0.800000011920929
0.06841830164194107,0.9200000166893005,0.1371820867061615,0.800000011920929
0.06834404170513153,0.9200000166893005,0.1371973752975464,0.8100000023841858
0.06834982335567474,0.9200000166893005,0.13708122074604034,0.800000011920929
0.06823064386844635,0.9200000166893005,0.1370343118906021,0.800000011920929
0.06788541376590729,0.9200000166893005,0.1371096968650818,0.800000011920929
0.0686052069067955,0.8999999761581421,0.13815619051456451,0.800000011920929
0.06906735152006149,0.8999999761581421,0.13773810863494873,0.7900000214576721
0.06862132251262665,0.8999999761581421,0.13736887276172638,0.7900000214576721
0.06816551089286804,0.9100000262260437,0.13683179020881653,0.7900000214576721
0.06790218502283096,0.9200000166893005,0.13683272898197174,0.7900000214576721
0.06790289282798767,0.9100000262260437,0.137112095952034,0.7900000214576721
0.06805635988712311,0.9200000166893005,0.13705481588840485,0.7900000214576721
0.06810415536165237,0.8999999761581421,0.13722285628318787,0.7900000214576721
0.067961186170578,0.9100000262260437,0.13694901764392853,0.7900000214576721
0.06774824857711792,0.9200000166893005,0.13687990605831146,0.7900000214576721
0.06722134351730347,0.9200000166893005,0.13654834032058716,0.800000011920929
0.0677877888083458,0.9200000166893005,0.13630357384681702,0.8100000023841858
0.06822903454303741,0.9300000071525574,0.1361338198184967,0.8100000023841858
0.0676979348063469,0.9200000166893005,0.1360144019126892,0.800000011920929
0.06759727746248245,0.9200000166893005,0.13593828678131104,0.800000011920929
0.0675455629825592,0.9200000166893005,0.13603448867797852,0.8100000023841858
0.06768856942653656,0.9200000166893005,0.1363355666399002,0.800000011920929
0.06736081838607788,0.9200000166893005,0.13644959032535553,0.800000011920929
0.06821315735578537,0.9200000166893005,0.13677406311035156,0.7900000214576721
0.06711024045944214,0.9200000166893005,0.1365910917520523,0.800000011920929
0.06713369488716125,0.9200000166893005,0.13669775426387787,0.800000011920929
0.0671197921037674,0.9200000166893005,0.1365085393190384,0.800000011920929
0.06699992716312408,0.9200000166893005,0.13660188019275665,0.800000011920929
0.06698547303676605,0.9200000166893005,0.13659484684467316,0.800000011920929
0.06688358634710312,0.9200000166893005,0.13693420588970184,0.7900000214576721
0.06728151440620422,0.9200000166893005,0.13711577653884888,0.7900000214576721
0.06712912768125534,0.9200000166893005,0.13692042231559753,0.7900000214576721
0.06742176413536072,0.9200000166893005,0.1366286426782608,0.800000011920929
0.06667018681764603,0.9200000166893005,0.13679565489292145,0.800000011920929
0.06680949032306671,0.9200000166893005,0.13699154555797577,0.7900000214576721
0.06678592413663864,0.9200000166893005,0.1368885189294815,0.800000011920929
0.06655897945165634,0.9200000166893005,0.13675345480442047,0.800000011920929
0.06710994243621826,0.9200000166893005,0.1367056667804718,0.8100000023841858
0.06691640615463257,0.9200000166893005,0.1366957426071167,0.8100000023841858
0.06688320636749268,0.9200000166893005,0.13696719706058502,0.800000011920929
0.06652805209159851,0.9200000166893005,0.13711340725421906,0.800000011920929
0.06626839190721512,0.9200000166893005,0.1372763216495514,0.7900000214576721
0.06653694808483124,0.9200000166893005,0.13716986775398254,0.7900000214576721
0.0665358230471611,0.9200000166893005,0.13703136146068573,0.800000011920929
0.06626894325017929,0.9200000166893005,0.1370002031326294,0.800000011920929
0.06641987711191177,0.9200000166893005,0.1371058225631714,0.800000011920929
0.06695112586021423,0.9200000166893005,0.13647449016571045,0.800000011920929
0.067439004778862,0.9200000166893005,0.13685493171215057,0.7900000214576721
0.0664321780204773,0.9200000166893005,0.13647283613681793,0.7900000214576721
0.06622926890850067,0.9200000166893005,0.13640381395816803,0.800000011920929
0.06603088974952698,0.9200000166893005,0.13640525937080383,0.800000011920929
0.06641553342342377,0.9200000166893005,0.13647165894508362,0.8100000023841858
0.06641306728124619,0.9200000166893005,0.13652926683425903,0.800000011920929
0.06602894514799118,0.9200000166893005,0.13623856008052826,0.8100000023841858
0.06618408858776093,0.9200000166893005,0.13630667328834534,0.800000011920929
0.06586400419473648,0.9200000166893005,0.1361526995897293,0.800000011920929
0.06603337079286575,0.9200000166893005,0.13643795251846313,0.8100000023841858
0.06601119786500931,0.9200000166893005,0.13640715181827545,0.8100000023841858
0.06611745059490204,0.9300000071525574,0.13624846935272217,0.8100000023841858
0.06605701148509979,0.9300000071525574,0.13605915009975433,0.8100000023841858
0.06602909415960312,0.9300000071525574,0.1357191503047943,0.8100000023841858
0.06564951688051224,0.9200000166893005,0.13573172688484192,0.8100000023841858
0.06585370749235153,0.9200000166893005,0.13593076169490814,0.7900000214576721
0.06585180759429932,0.9200000166893005,0.13611824810504913,0.7900000214576721
0.06563285738229752,0.9200000166893005,0.13583658635616302,0.8100000023841858
0.06551709026098251,0.9200000166893005,0.1361437439918518,0.800000011920929
0.0663784071803093,0.9200000166893005,0.1364763379096985,0.8100000023841858
0.06639957427978516,0.9300000071525574,0.136665940284729,0.800000011920929
0.06649386137723923,0.9200000166893005,0.13665348291397095,0.8100000023841858
0.06551769375801086,0.9200000166893005,0.13648906350135803,0.8100000023841858
0.0649290606379509,0.9200000166893005,0.13672123849391937,0.800000011920929
0.06506013125181198,0.9100000262260437,0.13726548850536346,0.7900000214576721
0.06521657854318619,0.9200000166893005,0.1370186060667038,0.7900000214576721
0.06522257626056671,0.9200000166893005,0.13688817620277405,0.7900000214576721
0.06500206142663956,0.9200000166893005,0.1367231011390686,0.800000011920929
0.06553817540407181,0.9200000166893005,0.1365886926651001,0.8100000023841858
0.06551498919725418,0.9200000166893005,0.1367560178041458,0.800000011920929
0.06507199257612228,0.9200000166893005,0.13693279027938843,0.7900000214576721
0.06547947973012924,0.9100000262260437,0.13750895857810974,0.7900000214576721
0.06550231575965881,0.9100000262260437,0.13717444241046906,0.7900000214576721
0.06555156409740448,0.9100000262260437,0.13644656538963318,0.800000011920929
0.06466465443372726,0.9200000166893005,0.1363271325826645,0.7900000214576721
0.0651487410068512,0.9200000166893005,0.13632065057754517,0.800000011920929
0.06438297033309937,0.9200000166893005,0.1365422159433365,0.7900000214576721
0.06465761363506317,0.9100000262260437,0.13643978536128998,0.7900000214576721
0.06462784856557846,0.9200000166893005,0.1360863745212555,0.800000011920929
0.06434553861618042,0.9200000166893005,0.1361609697341919,0.8100000023841858
0.06539428979158401,0.9200000166893005,0.13627803325653076,0.800000011920929
0.06486675888299942,0.9200000166893005,0.13658171892166138,0.800000011920929
0.06468038260936737,0.9200000166893005,0.13700832426548004,0.800000011920929
0.06466309726238251,0.9200000166893005,0.13699957728385925,0.800000011920929
0.06440572440624237,0.9200000166893005,0.1370902806520462,0.7900000214576721
0.06425945460796356,0.9200000166893005,0.13725577294826508,0.800000011920929
0.06431715190410614,0.9200000166893005,0.13722243905067444,0.800000011920929
0.06415469944477081,0.9200000166893005,0.1371259093284607,0.800000011920929
0.06414417177438736,0.9200000166893005,0.13698747754096985,0.8100000023841858
0.06533142924308777,0.9200000166893005,0.1367972046136856,0.800000011920929
0.06514736264944077,0.9200000166893005,0.13655631244182587,0.8100000023841858
0.06401768326759338,0.9200000166893005,0.1363382190465927,0.8100000023841858
0.06511491537094116,0.9200000166893005,0.13645267486572266,0.7900000214576721
0.06411344558000565,0.9200000166893005,0.13651277124881744,0.7900000214576721
0.06383050233125687,0.9200000166893005,0.13641884922981262,0.7900000214576721
0.06391041725873947,0.9200000166893005,0.13636717200279236,0.7900000214576721
0.06398982554674149,0.9200000166893005,0.13617680966854095,0.8100000023841858
0.0635685995221138,0.9200000166893005,0.13599921762943268,0.800000011920929
0.06359401345252991,0.9200000166893005,0.13574646413326263,0.8100000023841858
0.06370370090007782,0.9200000166893005,0.1356581449508667,0.8100000023841858
0.06346115469932556,0.9200000166893005,0.13573645055294037,0.8100000023841858
0.06384608149528503,0.9200000166893005,0.13641633093357086,0.7900000214576721
0.06478334218263626,0.9100000262260437,0.13691724836826324,0.7799999713897705
0.06391975283622742,0.9100000262260437,0.13629579544067383,0.7900000214576721
0.0633736178278923,0.9200000166893005,0.13611029088497162,0.8100000023841858
0.065992072224617,0.9200000166893005,0.136272594332695,0.7900000214576721
0.0643099993467331,0.9300000071525574,0.13612282276153564,0.8100000023841858
0.06336110830307007,0.9200000166893005,0.1362685263156891,0.8100000023841858
0.06311117857694626,0.9200000166893005,0.13622136414051056,0.800000011920929
0.06313207000494003,0.9200000166893005,0.13621647655963898,0.800000011920929
0.06324586272239685,0.9200000166893005,0.1357669234275818,0.8100000023841858
0.0631018653512001,0.9200000166893005,0.13555574417114258,0.8100000023841858
0.06312088668346405,0.9200000166893005,0.13537932932376862,0.8100000023841858
0.06341153383255005,0.9200000166893005,0.13546885550022125,0.8100000023841858
0.06356978416442871,0.9200000166893005,0.13554805517196655,0.8100000023841858
0.06326381862163544,0.9200000166893005,0.135195791721344,0.8100000023841858
0.06304043531417847,0.9200000166893005,0.13499251008033752,0.8100000023841858
0.06268353015184402,0.9200000166893005,0.1352575421333313,0.8100000023841858
0.06243177875876427,0.9200000166893005,0.1353372037410736,0.800000011920929
0.06268656253814697,0.9200000166893005,0.13540223240852356,0.7900000214576721
0.06259676814079285,0.9200000166893005,0.13551676273345947,0.7900000214576721
0.06334183365106583,0.9100000262260437,0.1362251192331314,0.7900000214576721
0.06282777339220047,0.9100000262260437,0.1357927918434143,0.8100000023841858
0.06260015815496445,0.9200000166893005,0.13585640490055084,0.8100000023841858
0.06235791742801666,0.9200000166893005,0.13605055212974548,0.8100000023841858
0.06298226118087769,0.9200000166893005,0.13655556738376617,0.7900000214576721
0.06293199211359024,0.9200000166893005,0.13627074658870697,0.7900000214576721
0.062361955642700195,0.9100000262260437,0.13668331503868103,0.7799999713897705
0.06262665241956711,0.9100000262260437,0.1363614797592163,0.7799999713897705
0.06257046014070511,0.9200000166893005,0.1358596533536911,0.7900000214576721
0.062400780618190765,0.9200000166893005,0.13593249022960663,0.7900000214576721
0.06190894916653633,0.9200000166893005,0.13560910522937775,0.8100000023841858
0.062076158821582794,0.9200000166893005,0.13547149300575256,0.8100000023841858
0.061984725296497345,0.9200000166893005,0.13529162108898163,0.8100000023841858
0.06227957084774971,0.9200000166893005,0.1352834403514862,0.800000011920929
0.0619218535721302,0.9200000166893005,0.13498049974441528,0.800000011920929
0.062038354575634,0.9200000166893005,0.13467299938201904,0.8100000023841858
0.061791323125362396,0.9200000166893005,0.13468965888023376,0.8100000023841858
0.06172643229365349,0.9200000166893005,0.13479620218276978,0.800000011920929
0.061654869467020035,0.9200000166893005,0.13512887060642242,0.7900000214576721
0.06178358197212219,0.9200000166893005,0.13490964472293854,0.7900000214576721
0.06176595389842987,0.9200000166893005,0.13470928370952606,0.8100000023841858
0.06175704300403595,0.9200000166893005,0.13502463698387146,0.8100000023841858
0.06137560307979584,0.9200000166893005,0.13531005382537842,0.800000011920929
0.06129991635680199,0.9200000166893005,0.13573840260505676,0.7799999713897705
0.061810482293367386,0.9200000166893005,0.13625043630599976,0.7900000214576721
0.06190090253949165,0.9200000166893005,0.13606314361095428,0.7799999713897705
0.061479367315769196,0.9200000166893005,0.13576295971870422,0.7900000214576721
0.06139400601387024,0.9200000166893005,0.13519084453582764,0.8100000023841858
0.061606213450431824,0.9300000071525574,0.13503676652908325,0.8100000023841858
0.061492886394262314,0.9300000071525574,0.1349692940711975,0.8100000023841858
0.06127549335360527,0.9200000166893005,0.134987935423851,0.8100000023841858
0.061053935438394547,0.9200000166893005,0.13510538637638092,0.8100000023841858
0.061220698058605194,0.9200000166893005,0.13508154451847076,0.800000011920929
0.06139655038714409,0.9200000166893005,0.13527967035770416,0.7900000214576721
0.06121934577822685,0.9300000071525574,0.1351291686296463,0.7900000214576721
0.06089869141578674,0.9200000166893005,0.13485051691532135,0.800000011920929
0.0607449896633625,0.9200000166893005,0.13468043506145477,0.8100000023841858
0.060858625918626785,0.9200000166893005,0.13460426032543182,0.8100000023841858
0.060832131654024124,0.9200000166893005,0.13461855053901672,0.8100000023841858
0.06070750579237938,0.9200000166893005,0.13467444479465485,0.8100000023841858
0.06083840876817703,0.9200000166893005,0.13481009006500244,0.800000011920929
0.06075269728899002,0.9200000166893005,0.1349097639322281,0.800000011920929
0.06055162847042084,0.9200000166893005,0.13476549088954926,0.800000011920929
0.06055169925093651,0.9200000166893005,0.13463076949119568,0.8100000023841858
0.06060223653912544,0.9200000166893005,0.13443128764629364,0.8100000023841858
0.060334935784339905,0.9300000071525574,0.13440734148025513,0.8100000023841858
0.06059945002198219,0.9300000071525574,0.13422565162181854,0.8100000023841858
0.061107028275728226,0.9300000071525574,0.13429772853851318,0.8100000023841858
0.060514047741889954,0.9300000071525574,0.13466566801071167,0.8100000023841858
0.06027892231941223,0.9300000071525574,0.13492083549499512,0.800000011920929
0.0601164847612381,0.9200000166893005,0.13530124723911285,0.800000011920929
0.060438018292188644,0.9200000166893005,0.13603846728801727,0.800000011920929
0.06074291095137596,0.9300000071525574,0.1361531764268875,0.7900000214576721
0.060761190950870514,0.9300000071525574,0.13559359312057495,0.7900000214576721
0.060119494795799255,0.9200000166893005,0.1355275958776474,0.7900000214576721
0.06020357087254524,0.9200000166893005,0.1353045552968979,0.8100000023841858
0.05996443331241608,0.9200000166893005,0.13534724712371826,0.8100000023841858
0.05984209477901459,0.9200000166893005,0.13555191457271576,0.800000011920929
0.059990186244249344,0.9300000071525574,0.13574688136577606,0.7900000214576721
0.060624171048402786,0.9200000166893005,0.13673214614391327,0.7900000214576721
0.06129784137010574,0.9200000166893005,0.13667862117290497,0.7900000214576721
0.05973001942038536,0.9200000166893005,0.13542653620243073,0.800000011920929
0.05939076840877533,0.9200000166893005,0.13518768548965454,0.8100000023841858
0.0604618638753891,0.9300000071525574,0.13483624160289764,0.800000011920929
0.06049420312047005,0.9300000071525574,0.13461880385875702,0.8100000023841858
0.05925925821065903,0.9300000071525574,0.13449081778526306,0.8100000023841858
0.05905012786388397,0.9200000166893005,0.1350892186164856,0.800000011920929
0.06079871207475662,0.9200000166893005,0.13581813871860504,0.7900000214576721
0.060405511409044266,0.9200000166893005,0.13569512963294983,0.800000011920929
0.059887293726205826,0.9200000166893005,0.13539481163024902,0.800000011920929
0.059232912957668304,0.9300000071525574,0.13438960909843445,0.8100000023841858
0.059143997728824615,0.9300000071525574,0.1340779960155487,0.8100000023841858
0.05952799320220947,0.9300000071525574,0.13354134559631348,0.8100000023841858
0.05957833305001259,0.9200000166893005,0.13269208371639252,0.8100000023841858
0.059657204896211624,0.9300000071525574,0.13265067338943481,0.8100000023841858
0.05960456281900406,0.9300000071525574,0.13266223669052124,0.8100000023841858
0.059376396238803864,0.9300000071525574,0.13284622132778168,0.8100000023841858
0.059412889182567596,0.9300000071525574,0.13335400819778442,0.8100000023841858
0.05877203494310379,0.9399999976158142,0.13383780419826508,0.800000011920929
0.059928055852651596,0.9200000166893005,0.13530440628528595,0.7900000214576721
0.06008567661046982,0.9200000166893005,0.1347464770078659,0.800000011920929
0.059262946248054504,0.9300000071525574,0.13464105129241943,0.800000011920929
0.05891481786966324,0.9300000071525574,0.13431231677532196,0.800000011920929
0.058561600744724274,0.9300000071525574,0.13445496559143066,0.8100000023841858
0.05883192643523216,0.9300000071525574,0.13442420959472656,0.8100000023841858
0.05854473263025284,0.9300000071525574,0.13445359468460083,0.800000011920929
0.058533959090709686,0.9300000071525574,0.13448448479175568,0.800000011920929
0.058476999402046204,0.9200000166893005,0.1342642456293106,0.8100000023841858
0.058605317026376724,0.9300000071525574,0.134333074092865,0.800000011920929
0.05831895023584366,0.9200000166893005,0.1341480314731598,0.8100000023841858
0.05848841369152069,0.9200000166893005,0.1340285837650299,0.8100000023841858
0.05901234969496727,0.9300000071525574,0.13390566408634186,0.8100000023841858
0.05837203189730644,0.9300000071525574,0.13402391970157623,0.8100000023841858
0.0583079531788826,0.9300000071525574,0.13445588946342468,0.800000011920929
0.058774031698703766,0.9300000071525574,0.1349470019340515,0.800000011920929
0.05859833210706711,0.9300000071525574,0.1352662891149521,0.800000011920929
0.058658815920352936,0.9200000166893005,0.13508133590221405,0.800000011920929
0.05828823894262314,0.9300000071525574,0.13460934162139893,0.7900000214576721
0.05791852995753288,0.9300000071525574,0.1344018578529358,0.8100000023841858
0.0580245777964592,0.9399999976158142,0.1342727690935135,0.8100000023841858
0.05799443647265434,0.9300000071525574,0.13410638272762299,0.8100000023841858
0.05783797428011894,0.9300000071525574,0.1342490166425705,0.8100000023841858
0.05776282772421837,0.9300000071525574,0.13456718623638153,0.800000011920929
0.05867345258593559,0.9300000071525574,0.13500668108463287,0.800000011920929
0.05851637199521065,0.9300000071525574,0.13448531925678253,0.800000011920929
0.057788196951150894,0.9300000071525574,0.13447459042072296,0.800000011920929
0.057775240391492844,0.9300000071525574,0.13440541923046112,0.8100000023841858
0.05792638286948204,0.9300000071525574,0.13462167978286743,0.800000011920929
0.05773252993822098,0.9300000071525574,0.13460673391819,0.800000011920929
0.05751720815896988,0.9300000071525574,0.13431218266487122,0.8100000023841858
0.05753559619188309,0.9399999976158142,0.13437625765800476,0.8100000023841858
0.057491470128297806,0.9300000071525574,0.1344243288040161,0.8100000023841858
0.057342346757650375,0.9300000071525574,0.13461999595165253,0.800000011920929
0.057212814688682556,0.9300000071525574,0.13466735184192657,0.800000011920929
0.057253647595644,0.9300000071525574,0.13473573327064514,0.8100000023841858
0.05725627392530441,0.9300000071525574,0.1346043050289154,0.8100000023841858
0.05726676806807518,0.9300000071525574,0.13473369181156158,0.800000011920929
0.05727653577923775,0.9300000071525574,0.13442279398441315,0.800000011920929
0.057149916887283325,0.9300000071525574,0.13457787036895752,0.800000011920929
0.057060059159994125,0.9300000071525574,0.13395847380161285,0.800000011920929
0.056953635066747665,0.9300000071525574,0.13360053300857544,0.800000011920929
0.05679062381386757,0.9399999976158142,0.13346830010414124,0.8100000023841858
0.05695262551307678,0.9300000071525574,0.1335044950246811,0.8100000023841858
0.05686044692993164,0.9300000071525574,0.13350467383861542,0.8100000023841858
0.05666525289416313,0.9399999976158142,0.13372401893138885,0.800000011920929
0.057216763496398926,0.9300000071525574,0.13441091775894165,0.800000011920929
0.05718346685171127,0.9300000071525574,0.13459578156471252,0.800000011920929
0.05703653395175934,0.9300000071525574,0.13421425223350525,0.800000011920929
0.05684518814086914,0.9300000071525574,0.13408975303173065,0.800000011920929
0.0566137358546257,0.9300000071525574,0.13408465683460236,0.800000011920929
0.05677727609872818,0.9200000166893005,0.13430099189281464,0.800000011920929
0.05689602345228195,0.9300000071525574,0.1341247856616974,0.800000011920929
0.05784781277179718,0.9200000166893005,0.13468830287456512,0.7900000214576721
0.05710757151246071,0.9200000166893005,0.13400880992412567,0.800000011920929
0.056616369634866714,0.9200000166893005,0.1337529718875885,0.800000011920929
0.05652971565723419,0.9300000071525574,0.13320380449295044,0.8100000023841858
0.05628812685608864,0.9399999976158142,0.13310065865516663,0.8199999928474426
0.056115083396434784,0.9399999976158142,0.13326434791088104,0.8100000023841858
0.05643510818481445,0.9300000071525574,0.13364726305007935,0.800000011920929
0.0562535859644413,0.9300000071525574,0.13349910080432892,0.8100000023841858
0.05644387751817703,0.9399999976158142,0.13307079672813416,0.8100000023841858
0.0564291812479496,0.9399999976158142,0.13296067714691162,0.8100000023841858
0.0557919405400753,0.9399999976158142,0.13308319449424744,0.8100000023841858
0.05595744028687477,0.9399999976158142,0.13346357643604279,0.800000011920929
0.05615469813346863,0.9300000071525574,0.13354752957820892,0.800000011920929
0.05592658370733261,0.9300000071525574,0.13375672698020935,0.800000011920929
0.05591995641589165,0.9300000071525574,0.13334742188453674,0.8100000023841858
0.055517688393592834,0.9399999976158142,0.1333073377609253,0.8100000023841858
0.05558094382286072,0.9399999976158142,0.13331030309200287,0.8100000023841858
0.05577506124973297,0.9399999976158142,0.13366633653640747,0.8100000023841858
0.055754803121089935,0.9399999976158142,0.13372303545475006,0.8100000023841858
0.05613216757774353,0.9399999976158142,0.13383840024471283,0.8100000023841858
0.05594237893819809,0.9399999976158142,0.1337794065475464,0.8100000023841858
0.055693525820970535,0.9399999976158142,0.1333327740430832,0.8100000023841858
0.055436186492443085,0.9399999976158142,0.13300812244415283,0.8199999928474426
0.055229172110557556,0.9399999976158142,0.13305316865444183,0.8100000023841858
0.056000690907239914,0.9399999976158142,0.1336023360490799,0.800000011920929
0.05542052164673805,0.9399999976158142,0.13267745077610016,0.8100000023841858
0.055982936173677444,0.9399999976158142,0.1325099617242813,0.8199999928474426
0.05552412196993828,0.9399999976158142,0.13277453184127808,0.8199999928474426
0.0556759387254715,0.9399999976158142,0.13325893878936768,0.8199999928474426
0.05586029589176178,0.9399999976158142,0.1338939219713211,0.8100000023841858
0.056173473596572876,0.9300000071525574,0.13438478112220764,0.800000011920929
0.055684689432382584,0.9300000071525574,0.13341762125492096,0.8100000023841858
0.05484441667795181,0.9399999976158142,0.13326916098594666,0.8199999928474426
0.05491352453827858,0.9399999976158142,0.13284124433994293,0.8100000023841858
0.054768577218055725,0.9399999976158142,0.1327318549156189,0.8199999928474426
0.05479475110769272,0.9399999976158142,0.13261814415454865,0.8199999928474426
0.05487639829516411,0.9399999976158142,0.13259555399417877,0.8199999928474426
0.05485532432794571,0.9399999976158142,0.1328255981206894,0.8199999928474426
0.05465613678097725,0.9399999976158142,0.1325477659702301,0.8199999928474426
0.054744768887758255,0.9399999976158142,0.13224507868289948,0.8199999928474426
0.054666668176651,0.9399999976158142,0.13209694623947144,0.8299999833106995
0.05438368767499924,0.9399999976158142,0.13220036029815674,0.8100000023841858
0.054216671735048294,0.9399999976158142,0.13259674608707428,0.800000011920929
0.05486711859703064,0.9300000071525574,0.13346432149410248,0.800000011920929
0.055058326572179794,0.9399999976158142,0.13342167437076569,0.800000011920929
0.054923273622989655,0.9300000071525574,0.13312062621116638,0.800000011920929
0.05455178767442703,0.9300000071525574,0.13310803472995758,0.800000011920929
0.0542428158223629,0.9300000071525574,0.13316793739795685,0.800000011920929
0.05407236889004707,0.9399999976158142,0.13290783762931824,0.800000011920929
0.054261818528175354,0.9399999976158142,0.13204851746559143,0.8100000023841858
0.0540926419198513,0.9399999976158142,0.13154393434524536,0.8199999928474426
0.054225847125053406,0.9399999976158142,0.13167357444763184,0.8199999928474426
0.05422084778547287,0.9399999976158142,0.1318211406469345,0.8199999928474426
0.05407831072807312,0.9399999976158142,0.13201533257961273,0.8199999928474426
0.05422049015760422,0.9399999976158142,0.1323905736207962,0.8100000023841858
0.05366158485412598,0.9399999976158142,0.13221754133701324,0.8199999928474426
0.053768500685691833,0.9399999976158142,0.13241589069366455,0.8199999928474426
0.053625140339136124,0.9399999976158142,0.1325189471244812,0.8100000023841858
0.05450466647744179,0.9300000071525574,0.1324523240327835,0.8100000023841858
0.05388450250029564,0.9399999976158142,0.13229382038116455,0.8199999928474426
0.05405883863568306,0.9399999976158142,0.13265471160411835,0.800000011920929
0.05366756394505501,0.9399999976158142,0.13283127546310425,0.800000011920929
0.053306661546230316,0.9399999976158142,0.1325729787349701,0.8100000023841858
0.05419742688536644,0.9399999976158142,0.132380872964859,0.8199999928474426
0.05376141518354416,0.9399999976158142,0.13239851593971252,0.8100000023841858
0.053362902253866196,0.9399999976158142,0.13235488533973694,0.8299999833106995
0.05323228985071182,0.9399999976158142,0.132435142993927,0.8299999833106995
0.053396936506032944,0.9399999976158142,0.13259902596473694,0.800000011920929
0.05314980074763298,0.9399999976158142,0.13258105516433716,0.8199999928474426
0.05288058891892433,0.9399999976158142,0.13219162821769714,0.8199999928474426
0.053182266652584076,0.9399999976158142,0.13214276731014252,0.8299999833106995
0.0529305562376976,0.9399999976158142,0.13204102218151093,0.8199999928474426
0.05284881964325905,0.9399999976158142,0.13210347294807434,0.8199999928474426
0.05293454974889755,0.9399999976158142,0.13218651711940765,0.8100000023841858
0.05298589542508125,0.9399999976158142,0.13216395676136017,0.8199999928474426
0.052876874804496765,0.9399999976158142,0.1321023404598236,0.8199999928474426
0.0527753084897995,0.9399999976158142,0.1322319060564041,0.8100000023841858
0.05265308544039726,0.9399999976158142,0.13240863382816315,0.800000011920929
0.053667616099119186,0.9399999976158142,0.13265947997570038,0.800000011920929
0.053173281252384186,0.9399999976158142,0.13170446455478668,0.8199999928474426
0.052580591291189194,0.9399999976158142,0.13136915862560272,0.8199999928474426
0.0524652861058712,0.9399999976158142,0.1315539926290512,0.8199999928474426
0.05244096368551254,0.9399999976158142,0.1322440505027771,0.8100000023841858
0.05249520391225815,0.9399999976158142,0.13235625624656677,0.8100000023841858
0.05213601887226105,0.9399999976158142,0.13200469315052032,0.8199999928474426
0.05282502993941307,0.9399999976158142,0.13188305497169495,0.8199999928474426
0.052198752760887146,0.9399999976158142,0.13193604350090027,0.8100000023841858
0.052061084657907486,0.9399999976158142,0.13191565871238708,0.8100000023841858
0.05216722935438156,0.9399999976158142,0.13179312646389008,0.8199999928474426
0.05255318060517311,0.9399999976158142,0.13195744156837463,0.8100000023841858
0.052074022591114044,0.9399999976158142,0.13190560042858124,0.8100000023841858
0.052117034792900085,0.9399999976158142,0.13182544708251953,0.8100000023841858
0.052138060331344604,0.9399999976158142,0.13175277411937714,0.8100000023841858
0.05183107405900955,0.9399999976158142,0.13179242610931396,0.8100000023841858
0.05183200538158417,0.9399999976158142,0.13164633512496948,0.8199999928474426
0.05174359306693077,0.9399999976158142,0.13168025016784668,0.8100000023841858
0.051691483706235886,0.9399999976158142,0.13180743157863617,0.8100000023841858
0.052685655653476715,0.9300000071525574,0.13234034180641174,0.800000011920929
0.05187726020812988,0.9300000071525574,0.13240918517112732,0.8100000023841858
0.051722683012485504,0.9399999976158142,0.13261359930038452,0.8100000023841858
0.05181988328695297,0.9399999976158142,0.13243724405765533,0.800000011920929
0.05174838379025459,0.9399999976158142,0.13245798647403717,0.8100000023841858
0.05154775455594063,0.9399999976158142,0.13236881792545319,0.8199999928474426
0.0515049584209919,0.9399999976158142,0.1324349045753479,0.8100000023841858
0.05151193588972092,0.9399999976158142,0.13223309814929962,0.8100000023841858
0.05146138742566109,0.9399999976158142,0.1317773461341858,0.8199999928474426
0.051232460886240005,0.9399999976158142,0.13123421370983124,0.8299999833106995
0.05156112089753151,0.9399999976158142,0.13084888458251953,0.8199999928474426
0.05116666853427887,0.9399999976158142,0.13091492652893066,0.8199999928474426
0.05134134367108345,0.9399999976158142,0.1314636766910553,0.8199999928474426
0.051292482763528824,0.9399999976158142,0.1314614713191986,0.8199999928474426
0.0510246567428112,0.9399999976158142,0.1312728077173233,0.8199999928474426
0.05100924149155617,0.9399999976158142,0.13148343563079834,0.8199999928474426
0.05093315616250038,0.9399999976158142,0.13086208701133728,0.8299999833106995
0.05226288363337517,0.9399999976158142,0.13054127991199493,0.8199999928474426
0.051919665187597275,0.949999988079071,0.1305614560842514,0.8199999928474426
0.051368407905101776,0.9399999976158142,0.1312992423772812,0.8199999928474426
0.050815243273973465,0.9399999976158142,0.13131457567214966,0.8199999928474426
0.05105211213231087,0.9399999976158142,0.13072508573532104,0.8199999928474426
0.05072150379419327,0.9399999976158142,0.13074259459972382,0.8199999928474426
0.050653837621212006,0.9399999976158142,0.13078942894935608,0.8199999928474426
0.05066489055752754,0.9399999976158142,0.13080528378486633,0.8199999928474426
0.05043606460094452,0.9399999976158142,0.1309746354818344,0.8199999928474426
0.050384748727083206,0.9399999976158142,0.1308179795742035,0.8199999928474426
0.050402868539094925,0.9399999976158142,0.1308746635913849,0.8199999928474426
0.05026752129197121,0.9399999976158142,0.13094593584537506,0.8199999928474426
0.05026457458734512,0.9399999976158142,0.13127848505973816,0.8100000023841858
0.05071229487657547,0.9399999976158142,0.13118988275527954,0.8199999928474426
0.05098727345466614,0.9399999976158142,0.13116922974586487,0.8199999928474426
0.04970574006438255,0.9399999976158142,0.13105759024620056,0.8199999928474426
0.04979104548692703,0.949999988079071,0.1317301243543625,0.8100000023841858
0.05099879577755928,0.949999988079071,0.13222235441207886,0.8100000023841858
0.050289712846279144,0.949999988079071,0.131728857755661,0.8199999928474426
0.050152868032455444,0.9399999976158142,0.13094912469387054,0.8199999928474426
0.05007462948560715,0.9399999976158142,0.13076238334178925,0.8199999928474426
0.04985983669757843,0.9399999976158142,0.1308935284614563,0.8199999928474426
0.05003497749567032,0.949999988079071,0.131145179271698,0.8299999833106995
0.04990120977163315,0.949999988079071,0.13107675313949585,0.8299999833106995
0.04980476200580597,0.949999988079071,0.1308601349592209,0.8199999928474426
0.049881406128406525,0.9399999976158142,0.13035887479782104,0.8199999928474426
0.04961645230650902,0.9399999976158142,0.13029831647872925,0.8199999928474426
0.049588486552238464,0.9399999976158142,0.130431666970253,0.8199999928474426
0.04944626986980438,0.9399999976158142,0.13065887987613678,0.8199999928474426
0.04933276027441025,0.9399999976158142,0.13060635328292847,0.8199999928474426
0.049290820956230164,0.9399999976158142,0.13060340285301208,0.8199999928474426
0.04922977834939957,0.9399999976158142,0.13072887063026428,0.8199999928474426
0.04917754977941513,0.9399999976158142,0.1309661716222763,0.8199999928474426
0.04917528107762337,0.9399999976158142,0.13105088472366333,0.8199999928474426
0.04916399344801903,0.9399999976158142,0.1311243176460266,0.8199999928474426
0.04917926713824272,0.9399999976158142,0.1315504014492035,0.8199999928474426
0.04901982471346855,0.9399999976158142,0.131609246134758,0.8199999928474426
0.04893758147954941,0.9399999976158142,0.13178247213363647,0.8199999928474426
0.049260515719652176,0.9399999976158142,0.1319456547498703,0.8199999928474426
0.04895743355154991,0.9399999976158142,0.13163872063159943,0.8199999928474426
0.049138203263282776,0.9399999976158142,0.13159127533435822,0.8199999928474426
0.0488685704767704,0.9399999976158142,0.13160590827465057,0.8199999928474426
0.04938504099845886,0.9399999976158142,0.13196811079978943,0.8100000023841858
0.04911031574010849,0.949999988079071,0.1319560408592224,0.8100000023841858
0.049039825797080994,0.949999988079071,0.13154633343219757,0.8199999928474426
0.04859960451722145,0.9399999976158142,0.1312958151102066,0.8199999928474426
0.048631634563207626,0.9399999976158142,0.13116011023521423,0.8199999928474426
0.048663824796676636,0.9399999976158142,0.13130292296409607,0.8199999928474426
0.04853441193699837,0.9399999976158142,0.13075697422027588,0.8199999928474426
0.04846445471048355,0.9399999976158142,0.1302904188632965,0.8299999833106995
0.04910127818584442,0.9399999976158142,0.13036398589611053,0.8299999833106995
0.04903683811426163,0.949999988079071,0.130492702126503,0.8299999833106995
0.04860224202275276,0.9399999976158142,0.1305512934923172,0.8199999928474426
0.04844139516353607,0.9399999976158142,0.1310707926750183,0.8100000023841858
0.04900309443473816,0.949999988079071,0.13162530958652496,0.8100000023841858
0.048319268971681595,0.949999988079071,0.13166773319244385,0.8100000023841858
0.04815389961004257,0.949999988079071,0.13188381493091583,0.8100000023841858
0.0483020581305027,0.949999988079071,0.13185079395771027,0.8100000023841858
0.04813770949840546,0.949999988079071,0.13168960809707642,0.8199999928474426
0.048494186252355576,0.9399999976158142,0.13081561028957367,0.8100000023841858
0.048122309148311615,0.9399999976158142,0.13043212890625,0.8100000023841858
0.048141226172447205,0.949999988079071,0.12987887859344482,0.8199999928474426
0.04883425682783127,0.949999988079071,0.12980683147907257,0.8199999928474426
0.04862399026751518,0.9399999976158142,0.13023613393306732,0.8199999928474426
0.04779621586203575,0.9399999976158142,0.13052105903625488,0.8199999928474426
0.048191774636507034,0.949999988079071,0.13086873292922974,0.8199999928474426
0.0485319085419178,0.949999988079071,0.1303977221250534,0.8199999928474426
0.04745880514383316,0.9399999976158142,0.13057345151901245,0.8199999928474426
0.04775441810488701,0.949999988079071,0.13113652169704437,0.8199999928474426
0.0477815680205822,0.949999988079071,0.13127750158309937,0.8199999928474426
0.047440305352211,0.9599999785423279,0.13048391044139862,0.8199999928474426
0.04722839221358299,0.949999988079071,0.13012553751468658,0.8199999928474426
0.04721648991107941,0.9399999976158142,0.129907488822937,0.8199999928474426
0.04721537604928017,0.9399999976158142,0.1298113316297531,0.8199999928474426
0.0473828949034214,0.9399999976158142,0.12931422889232635,0.8199999928474426
0.047927193343639374,0.949999988079071,0.12935566902160645,0.8199999928474426
0.04791014641523361,0.949999988079071,0.12932701408863068,0.8199999928474426
0.047714486718177795,0.9399999976158142,0.12928086519241333,0.8199999928474426
0.0483514629304409,0.9399999976158142,0.12974311411380768,0.8199999928474426
0.04730050638318062,0.9599999785423279,0.13034743070602417,0.8199999928474426
0.047877974808216095,0.9599999785423279,0.13020190596580505,0.8199999928474426
0.04773266613483429,0.9599999785423279,0.13020625710487366,0.8199999928474426
0.047796688973903656,0.9599999785423279,0.1294165849685669,0.8199999928474426
0.04688505083322525,0.949999988079071,0.12920717895030975,0.8199999928474426
0.04676435887813568,0.949999988079071,0.1290506273508072,0.8199999928474426
0.0465860478579998,0.9399999976158142,0.1289813071489334,0.8199999928474426
0.046871546655893326,0.9399999976158142,0.12930327653884888,0.8199999928474426
0.04651287570595741,0.949999988079071,0.12960632145404816,0.8199999928474426
0.04632892459630966,0.9399999976158142,0.12992393970489502,0.8199999928474426
0.046467315405607224,0.9399999976158142,0.13011936843395233,0.8100000023841858
0.0465196818113327,0.9399999976158142,0.13031764328479767,0.8100000023841858
0.04632150009274483,0.9399999976158142,0.13071788847446442,0.8100000023841858
0.046671804040670395,0.9399999976158142,0.13156042993068695,0.8100000023841858
0.04649074375629425,0.949999988079071,0.13161294162273407,0.800000011920929
0.04657707363367081,0.9399999976158142,0.13089093565940857,0.8199999928474426
0.04666971042752266,0.9399999976158142,0.13064880669116974,0.8100000023841858
0.04631552845239639,0.9399999976158142,0.1302986890077591,0.8100000023841858
0.04625621810555458,0.9399999976158142,0.13018415868282318,0.8100000023841858
0.045848555862903595,0.9399999976158142,0.12996113300323486,0.8199999928474426
0.04594481363892555,0.949999988079071,0.1299906075000763,0.8299999833106995
0.04584363102912903,0.949999988079071,0.12930506467819214,0.8199999928474426
0.04614942893385887,0.9399999976158142,0.12895764410495758,0.8199999928474426
0.04559507220983505,0.9399999976158142,0.12913812696933746,0.8199999928474426
0.04559028521180153,0.949999988079071,0.12934160232543945,0.8299999833106995
0.0458609014749527,0.9599999785423279,0.12964759767055511,0.8299999833106995
0.04574327543377876,0.9599999785423279,0.12964019179344177,0.8299999833106995
0.045524608343839645,0.949999988079071,0.1295645385980606,0.8199999928474426
0.04549478366971016,0.949999988079071,0.1298152208328247,0.8299999833106995
0.045436710119247437,0.949999988079071,0.1298401951789856,0.8199999928474426
0.04539796710014343,0.949999988079071,0.12989893555641174,0.8100000023841858
0.04539744555950165,0.949999988079071,0.1299196183681488,0.8299999833106995
0.04536198452115059,0.9599999785423279,0.13015809655189514,0.8299999833106995
0.045471034944057465,0.9599999785423279,0.13025936484336853,0.8299999833106995
0.04532729461789131,0.9599999785423279,0.13060611486434937,0.8199999928474426
0.04553048312664032,0.9599999785423279,0.1306784749031067,0.8199999928474426
0.04557959735393524,0.9599999785423279,0.13089516758918762,0.8199999928474426
0.0456172339618206,0.9599999785423279,0.130477175116539,0.8199999928474426
