loss,accuracy,val_loss,val_accuracy,lr
0.5050237774848938,0.7300000190734863,0.6739234924316406,0.6499999761581421,0.0010000000474974513
0.3452288806438446,0.8500000238418579,0.6909540295600891,0.3799999952316284,0.0010000000474974513
0.3247988224029541,0.8500000238418579,0.6449642181396484,0.7099999785423279,0.0010000000474974513
0.22756575047969818,0.8899999856948853,0.7812792062759399,0.36000001430511475,0.0010000000474974513
0.17420610785484314,0.9399999976158142,0.9447598457336426,0.36000001430511475,0.0010000000474974513
0.1892409473657608,0.9399999976158142,1.0196298360824585,0.36000001430511475,0.0010000000474974513
0.23812727630138397,0.9200000166893005,1.576950192451477,0.36000001430511475,0.0010000000474974513
0.17713603377342224,0.9399999976158142,1.8778225183486938,0.36000001430511475,0.0010000000474974513
0.14401453733444214,0.9599999785423279,1.4640071392059326,0.36000001430511475,0.0010000000474974513
0.11469434946775436,0.949999988079071,1.8739758729934692,0.36000001430511475,0.0010000000474974513
0.10256749391555786,0.9700000286102295,2.0283820629119873,0.36000001430511475,0.0010000000474974513
0.10632803291082382,0.9599999785423279,3.535421133041382,0.36000001430511475,0.0010000000474974513
0.08249776065349579,0.9700000286102295,3.6367735862731934,0.36000001430511475,0.0010000000474974513
0.05838920548558235,0.9800000190734863,3.3172826766967773,0.36000001430511475,0.0010000000474974513
0.03660626336932182,1.0,2.731074810028076,0.36000001430511475,0.0010000000474974513
0.03582727164030075,0.9900000095367432,2.0562050342559814,0.36000001430511475,0.0010000000474974513
0.10901343077421188,0.949999988079071,5.006114959716797,0.36000001430511475,0.0010000000474974513
0.09174830466508865,0.9800000190734863,4.589948654174805,0.36000001430511475,0.0010000000474974513
0.06693272292613983,0.9900000095367432,3.102194309234619,0.36000001430511475,0.0010000000474974513
0.06817169487476349,0.9800000190734863,2.633932590484619,0.36000001430511475,0.0010000000474974513
0.04557568207383156,0.9800000190734863,3.9697625637054443,0.36000001430511475,0.0010000000474974513
0.0776999369263649,0.9700000286102295,1.5036832094192505,0.6899999976158142,0.0010000000474974513
0.08759955316781998,0.9700000286102295,0.480304479598999,0.8299999833106995,0.0010000000474974513
0.12063632160425186,0.9700000286102295,2.8758926391601562,0.3700000047683716,0.0010000000474974513
0.07128651440143585,0.9700000286102295,1.5195486545562744,0.44999998807907104,0.0010000000474974513
0.1511908769607544,0.9399999976158142,0.529097318649292,0.7599999904632568,0.0010000000474974513
0.05399518087506294,0.9800000190734863,0.8664939999580383,0.6100000143051147,0.0010000000474974513
0.0369931161403656,1.0,0.8897438645362854,0.6100000143051147,0.0010000000474974513
0.02902756631374359,1.0,0.3904370367527008,0.8600000143051147,0.0010000000474974513
0.02493458241224289,1.0,0.9884724617004395,0.6700000166893005,0.0010000000474974513
0.02854735590517521,0.9900000095367432,0.7296708822250366,0.7200000286102295,0.0010000000474974513
0.00961830373853445,1.0,0.34526142477989197,0.8399999737739563,0.0010000000474974513
0.003850492648780346,1.0,0.34930169582366943,0.8500000238418579,0.0010000000474974513
0.002120670862495899,1.0,0.35281094908714294,0.8500000238418579,0.0010000000474974513
0.002210950944572687,1.0,0.34712180495262146,0.8399999737739563,0.0010000000474974513
0.006421749014407396,1.0,0.317815899848938,0.8600000143051147,0.0010000000474974513
0.009523293003439903,1.0,0.37407127022743225,0.8700000047683716,0.0010000000474974513
0.07198122143745422,0.9800000190734863,0.8977994322776794,0.7300000190734863,0.0010000000474974513
0.17806273698806763,0.9300000071525574,4.537449836730957,0.38999998569488525,0.0010000000474974513
0.2219609022140503,0.9100000262260437,8.581908226013184,0.3799999952316284,0.0010000000474974513
0.12491524964570999,0.9399999976158142,1.7236807346343994,0.7300000190734863,0.0010000000474974513
0.10632689297199249,0.9599999785423279,2.625206232070923,0.699999988079071,0.0010000000474974513
0.04554019868373871,0.9900000095367432,2.527411699295044,0.699999988079071,0.0010000000474974513
0.025757579132914543,1.0,1.2158876657485962,0.8199999928474426,0.0010000000474974513
0.030419163405895233,0.9900000095367432,0.8769381046295166,0.8199999928474426,0.0010000000474974513
0.025545142590999603,1.0,0.7378040552139282,0.8399999737739563,0.0010000000474974513
0.01137462817132473,1.0,0.7289682626724243,0.8299999833106995,0.0010000000474974513
0.023981843143701553,1.0,0.6065898537635803,0.8799999952316284,0.0010000000474974513
0.027248602360486984,0.9900000095367432,0.654387354850769,0.8899999856948853,0.0010000000474974513
0.10603451728820801,0.9399999976158142,0.6941370964050293,0.8600000143051147,0.0010000000474974513
0.0983656495809555,0.9599999785423279,1.6694369316101074,0.7300000190734863,0.0010000000474974513
0.05291728675365448,0.9800000190734863,0.5867388248443604,0.8600000143051147,0.0010000000474974513
0.01981012150645256,0.9900000095367432,0.5729539394378662,0.8500000238418579,0.0010000000474974513
0.009553026407957077,1.0,0.4966810941696167,0.8500000238418579,0.0010000000474974513
0.007927666418254375,1.0,0.35279154777526855,0.8999999761581421,0.0010000000474974513
0.06891462206840515,0.9700000286102295,0.3815372586250305,0.8799999952316284,0.0010000000474974513
0.012801089324057102,1.0,0.5555785894393921,0.8799999952316284,0.0010000000474974513
0.027304600924253464,1.0,0.5222386717796326,0.8899999856948853,0.0010000000474974513
0.0831657126545906,0.9800000190734863,0.3700770437717438,0.9300000071525574,0.0010000000474974513
0.09639617800712585,0.949999988079071,0.35032281279563904,0.9200000166893005,0.0010000000474974513
0.032524313777685165,0.9900000095367432,0.5456287860870361,0.8600000143051147,0.0010000000474974513
0.07325015217065811,0.9800000190734863,0.8463878035545349,0.8399999737739563,0.0010000000474974513
0.031416382640600204,0.9900000095367432,0.721036970615387,0.8199999928474426,0.0010000000474974513
0.057264622300863266,0.9800000190734863,2.4374232292175293,0.5299999713897705,0.0010000000474974513
0.03858660161495209,0.9900000095367432,1.1767544746398926,0.8299999833106995,0.0010000000474974513
0.06737814843654633,0.9700000286102295,0.6337454319000244,0.8500000238418579,0.0010000000474974513
0.01593725197017193,1.0,0.6453680396080017,0.8299999833106995,0.0010000000474974513
0.007022987585514784,1.0,0.518795907497406,0.8500000238418579,0.0010000000474974513
0.0173422209918499,0.9900000095367432,0.7207263112068176,0.8299999833106995,0.0010000000474974513
0.02059166692197323,1.0,0.4850035607814789,0.8799999952316284,0.0010000000474974513
0.003853875445201993,1.0,0.5179390907287598,0.8700000047683716,0.0010000000474974513
0.003080920781940222,1.0,0.6387640237808228,0.8700000047683716,0.0010000000474974513
0.0018957764841616154,1.0,0.6130154132843018,0.8700000047683716,0.0010000000474974513
0.0032930653542280197,1.0,0.5456541180610657,0.8899999856948853,0.0010000000474974513
0.0017891924362629652,1.0,0.46010658144950867,0.8799999952316284,0.0010000000474974513
0.0030721230432391167,1.0,0.4647204279899597,0.8799999952316284,0.0010000000474974513
0.0017213005339726806,1.0,0.46927398443222046,0.8799999952316284,0.0010000000474974513
0.0016317367553710938,1.0,0.489663690328598,0.8899999856948853,0.0010000000474974513
0.002707837149500847,1.0,0.5013817548751831,0.8899999856948853,0.0010000000474974513
0.002188026672229171,1.0,0.4912942051887512,0.8799999952316284,0.0010000000474974513
0.0034093731082975864,1.0,0.5130634903907776,0.8799999952316284,0.0010000000474974513
0.0038125694263726473,1.0,0.5481817126274109,0.8799999952316284,0.0010000000474974513
0.047106560319662094,0.9800000190734863,0.5573121309280396,0.800000011920929,0.0010000000474974513
0.15562355518341064,0.949999988079071,1.9716649055480957,0.7900000214576721,0.0010000000474974513
0.07092919200658798,0.9800000190734863,1.470322608947754,0.800000011920929,0.0010000000474974513
0.02999904938042164,0.9900000095367432,0.49246177077293396,0.8600000143051147,0.0010000000474974513
0.03720850870013237,0.9900000095367432,0.5288419723510742,0.8500000238418579,0.0010000000474974513
0.03164185583591461,0.9900000095367432,0.8753558993339539,0.8199999928474426,0.0010000000474974513
0.053068771958351135,0.9800000190734863,0.8718927502632141,0.8399999737739563,0.0010000000474974513
0.05605210363864899,0.9800000190734863,0.8398130536079407,0.8600000143051147,0.0010000000474974513
0.06690702587366104,0.9800000190734863,0.7243033647537231,0.8700000047683716,0.0010000000474974513
0.04202340543270111,0.9800000190734863,0.8444036245346069,0.8399999737739563,0.0010000000474974513
0.01977793127298355,1.0,0.5372255444526672,0.8600000143051147,0.0010000000474974513
0.015264454297721386,0.9900000095367432,0.9752596020698547,0.6800000071525574,0.0010000000474974513
0.010974778793752193,1.0,0.9194298386573792,0.6899999976158142,0.0010000000474974513
0.006561409682035446,1.0,0.5668100118637085,0.8399999737739563,0.0010000000474974513
0.0024807152803987265,1.0,0.48739388585090637,0.8799999952316284,0.0010000000474974513
0.0047530001029372215,1.0,0.473520964384079,0.8799999952316284,0.0010000000474974513
0.004821244161576033,1.0,0.4313187301158905,0.8700000047683716,0.0010000000474974513
0.0025624907575547695,1.0,0.43060776591300964,0.8700000047683716,0.0010000000474974513
0.0012217321200296283,1.0,0.4365750253200531,0.8600000143051147,0.0010000000474974513
0.0025712645146995783,1.0,0.44334277510643005,0.8600000143051147,0.0010000000474974513
0.0020606706384569407,1.0,0.43701085448265076,0.8700000047683716,0.0010000000474974513
0.0010279373964294791,1.0,0.4384547173976898,0.8700000047683716,0.0010000000474974513
0.002401454374194145,1.0,0.43581512570381165,0.8700000047683716,0.0010000000474974513
0.0019146606791764498,1.0,0.4412936270236969,0.8700000047683716,0.0010000000474974513
0.0006432599038816988,1.0,0.44646573066711426,0.8700000047683716,0.0010000000474974513
0.0010660720290616155,1.0,0.4567229151725769,0.8799999952316284,0.0010000000474974513
0.000669848348479718,1.0,0.4652610123157501,0.8799999952316284,0.0010000000474974513
0.0007047551334835589,1.0,0.4757348299026489,0.8799999952316284,0.0010000000474974513
0.003468743059784174,1.0,0.5123464465141296,0.8700000047683716,0.0010000000474974513
0.0005406641867011786,1.0,0.5427490472793579,0.8700000047683716,0.0010000000474974513
0.001326502300798893,1.0,0.5463532209396362,0.8700000047683716,0.0010000000474974513
0.0005569472559727728,1.0,0.5445770025253296,0.8700000047683716,0.0010000000474974513
0.000266877468675375,1.0,0.5455369353294373,0.8700000047683716,0.0010000000474974513
0.0004316178965382278,1.0,0.5444818735122681,0.8700000047683716,0.0010000000474974513
0.0007383418269455433,1.0,0.5372618436813354,0.8799999952316284,0.0010000000474974513
0.000680473807733506,1.0,0.5294589400291443,0.8799999952316284,0.0010000000474974513
0.0019352015806362033,1.0,0.5217105150222778,0.8799999952316284,0.0010000000474974513
0.0009557149605825543,1.0,0.5267590880393982,0.8700000047683716,0.0010000000474974513
0.0005977492546662688,1.0,0.5327324867248535,0.8600000143051147,0.0010000000474974513
0.002596239559352398,1.0,0.5809140205383301,0.8700000047683716,0.0010000000474974513
0.0008554410887882113,1.0,0.6871857643127441,0.8799999952316284,0.0010000000474974513
0.0005985640455037355,1.0,0.7009809017181396,0.8799999952316284,0.0010000000474974513
0.0005516550154425204,1.0,0.6829271912574768,0.8799999952316284,0.0010000000474974513
0.0016001033363863826,1.0,0.6706487536430359,0.8799999952316284,0.0010000000474974513
0.0003124123904854059,1.0,0.640707790851593,0.8700000047683716,0.0010000000474974513
0.0004779890296049416,1.0,0.6201246380805969,0.8700000047683716,0.0010000000474974513
0.0003812230715993792,1.0,0.5954675078392029,0.8700000047683716,0.0010000000474974513
0.00047806461225263774,1.0,0.5818383693695068,0.8700000047683716,0.0010000000474974513
0.0005678877350874245,1.0,0.5740335583686829,0.8600000143051147,0.0010000000474974513
0.0007623934652656317,1.0,0.5702225565910339,0.8600000143051147,0.0010000000474974513
0.00023754299036227167,1.0,0.5676027536392212,0.8600000143051147,0.0010000000474974513
0.013762996532022953,0.9900000095367432,0.5824770927429199,0.8500000238418579,0.0010000000474974513
0.031857483088970184,0.9900000095367432,1.5920546054840088,0.7699999809265137,0.0010000000474974513
0.10423532128334045,0.9700000286102295,0.5246980786323547,0.8600000143051147,0.0010000000474974513
0.08191600441932678,0.9599999785423279,0.9963366985321045,0.75,0.0010000000474974513
0.0229631420224905,1.0,1.2663383483886719,0.699999988079071,0.0010000000474974513
0.018388504162430763,1.0,0.9335194230079651,0.7599999904632568,0.0010000000474974513
0.016103163361549377,0.9900000095367432,0.7217387557029724,0.8100000023841858,0.0010000000474974513
0.17366300523281097,0.949999988079071,1.331048607826233,0.800000011920929,0.0010000000474974513
0.17725858092308044,0.9200000166893005,12.222572326660156,0.6399999856948853,0.0010000000474974513
0.1128939688205719,0.949999988079071,7.193426609039307,0.6399999856948853,0.0010000000474974513
0.18522848188877106,0.9300000071525574,5.306354522705078,0.6399999856948853,0.0010000000474974513
0.06780725717544556,0.9800000190734863,3.441054105758667,0.6700000166893005,0.0010000000474974513
0.05586450174450874,0.9700000286102295,0.6901917457580566,0.8799999952316284,0.0010000000474974513
0.021719079464673996,1.0,0.6563881039619446,0.8999999761581421,0.0010000000474974513
0.016205422580242157,1.0,0.8937481045722961,0.8700000047683716,0.0010000000474974513
0.022031987085938454,0.9900000095367432,1.2751659154891968,0.8600000143051147,0.0010000000474974513
0.02598138526082039,0.9900000095367432,0.865085780620575,0.8600000143051147,0.0010000000474974513
0.09904210269451141,0.9599999785423279,0.7161938548088074,0.8500000238418579,0.0010000000474974513
0.07667731493711472,0.9700000286102295,4.044863700866699,0.6600000262260437,0.0010000000474974513
0.09978821873664856,0.9599999785423279,2.262183427810669,0.6899999976158142,0.0010000000474974513
0.06950907409191132,0.9599999785423279,1.948702096939087,0.6600000262260437,0.0010000000474974513
0.02353908307850361,1.0,1.3778555393218994,0.7799999713897705,0.0010000000474974513
0.014206934720277786,1.0,0.7967597246170044,0.8600000143051147,0.0010000000474974513
0.007369937840849161,1.0,0.6378962397575378,0.8500000238418579,0.0010000000474974513
0.002597257262095809,1.0,0.6175292730331421,0.8700000047683716,0.0010000000474974513
0.007091255858540535,1.0,0.5769005417823792,0.8700000047683716,0.0010000000474974513
0.00416666641831398,1.0,0.5224509239196777,0.8799999952316284,0.0010000000474974513
0.003553886665031314,1.0,0.5143635272979736,0.8899999856948853,0.0010000000474974513
0.004480405244976282,1.0,0.4581851661205292,0.8700000047683716,0.0010000000474974513
0.004977674689143896,1.0,0.45845282077789307,0.8799999952316284,0.0010000000474974513
0.0016768969362601638,1.0,0.4793885052204132,0.8700000047683716,0.0010000000474974513
0.0013308291090652347,1.0,0.4922276437282562,0.8700000047683716,0.0010000000474974513
0.002690861001610756,1.0,0.49147269129753113,0.8600000143051147,0.0005000000237487257
0.0005171493394300342,1.0,0.49272018671035767,0.8600000143051147,0.0005000000237487257
0.0009281467646360397,1.0,0.49346625804901123,0.8600000143051147,0.0005000000237487257
0.0005328163970261812,1.0,0.49522140622138977,0.8700000047683716,0.0005000000237487257
0.0038901374209672213,1.0,0.49130988121032715,0.8700000047683716,0.0005000000237487257
0.0018651076825335622,1.0,0.47937923669815063,0.8700000047683716,0.0005000000237487257
0.002255673985928297,1.0,0.4828489422798157,0.8899999856948853,0.0005000000237487257
0.005051078274846077,1.0,0.5052233934402466,0.8899999856948853,0.0005000000237487257
0.0004540479276329279,1.0,0.5233532190322876,0.8899999856948853,0.0005000000237487257
0.0006375549710355699,1.0,0.5325290560722351,0.8899999856948853,0.0005000000237487257
0.0019474347354844213,1.0,0.5366891026496887,0.8899999856948853,0.0005000000237487257
0.0006857512053102255,1.0,0.539420485496521,0.8700000047683716,0.0005000000237487257
0.00037755316589027643,1.0,0.5403686761856079,0.8700000047683716,0.0005000000237487257
0.0010790876112878323,1.0,0.5383481383323669,0.8700000047683716,0.0005000000237487257
0.0010775907430797815,1.0,0.5365930795669556,0.8700000047683716,0.0005000000237487257
0.0015941362362354994,1.0,0.5395726561546326,0.8700000047683716,0.0005000000237487257
0.0012075618142262101,1.0,0.5415301322937012,0.8700000047683716,0.0005000000237487257
0.00128571642562747,1.0,0.5519925355911255,0.8700000047683716,0.0005000000237487257
0.0004913534503430128,1.0,0.5605575442314148,0.8700000047683716,0.0005000000237487257
0.0013201115652918816,1.0,0.5589133501052856,0.8700000047683716,0.0005000000237487257
0.0015321417013183236,1.0,0.5514987111091614,0.8799999952316284,0.0005000000237487257
0.00033171731047332287,1.0,0.5517555475234985,0.8799999952316284,0.0005000000237487257
0.0008122705621644855,1.0,0.5498133897781372,0.8700000047683716,0.0005000000237487257
0.011575077660381794,1.0,0.4880206286907196,0.8700000047683716,0.0005000000237487257
0.0012680866057053208,1.0,0.44575199484825134,0.8799999952316284,0.0005000000237487257
0.00117977405898273,1.0,0.45077118277549744,0.8999999761581421,0.0005000000237487257
0.002215292537584901,1.0,0.44284892082214355,0.8899999856948853,0.0005000000237487257
0.0015326201682910323,1.0,0.4288526475429535,0.8799999952316284,0.0005000000237487257
0.0019608892034739256,1.0,0.42335742712020874,0.8600000143051147,0.0005000000237487257
0.0028510414995253086,1.0,0.42889031767845154,0.8700000047683716,0.0005000000237487257
0.00032362027559429407,1.0,0.4387165307998657,0.8799999952316284,0.0005000000237487257
0.0019476920133456588,1.0,0.4464322030544281,0.8700000047683716,0.0005000000237487257
0.00023720333410892636,1.0,0.4542052745819092,0.8700000047683716,0.0005000000237487257
0.00033657957101240754,1.0,0.4613040089607239,0.8600000143051147,0.0005000000237487257
0.0021050346549600363,1.0,0.49495673179626465,0.8500000238418579,0.0005000000237487257
0.00020232652605045587,1.0,0.5136044025421143,0.8500000238418579,0.0005000000237487257
0.0003979468601755798,1.0,0.5250983238220215,0.8500000238418579,0.0005000000237487257
0.001979054184630513,1.0,0.5450678467750549,0.8500000238418579,0.0005000000237487257
0.0002431682514725253,1.0,0.5558330416679382,0.8500000238418579,0.0005000000237487257
0.0012517274590209126,1.0,0.5671113729476929,0.8500000238418579,0.0005000000237487257
0.00038471774314530194,1.0,0.5682179927825928,0.8500000238418579,0.0005000000237487257
0.0018199947662651539,1.0,0.5796195864677429,0.8500000238418579,0.0005000000237487257
0.0002690624096430838,1.0,0.5814002752304077,0.8500000238418579,0.0005000000237487257
0.0018719262443482876,1.0,0.5469869375228882,0.8600000143051147,0.0005000000237487257
0.000212399463634938,1.0,0.5330080389976501,0.8600000143051147,0.0005000000237487257
0.0026829452253878117,1.0,0.5374900698661804,0.8500000238418579,0.0005000000237487257
0.00046224097604863346,1.0,0.5440415143966675,0.8700000047683716,0.0005000000237487257
0.0002236160944448784,1.0,0.5438479781150818,0.8700000047683716,0.0005000000237487257
0.0007485893438570201,1.0,0.5431550741195679,0.8700000047683716,0.0005000000237487257
0.00045255690929479897,1.0,0.5405230522155762,0.8700000047683716,0.0005000000237487257
0.00041755271377041936,1.0,0.5407741069793701,0.8700000047683716,0.0002500000118743628
0.003578740172088146,1.0,0.5552173852920532,0.8700000047683716,0.0002500000118743628
0.00037868943763896823,1.0,0.5662968754768372,0.8700000047683716,0.0002500000118743628
0.0008256241562776268,1.0,0.5713119506835938,0.8700000047683716,0.0002500000118743628
0.0016337200067937374,1.0,0.5675804615020752,0.8700000047683716,0.0002500000118743628
0.0006453393143601716,1.0,0.5631226897239685,0.8700000047683716,0.0002500000118743628
0.0010982556268572807,1.0,0.555616557598114,0.8700000047683716,0.0002500000118743628
0.00030242567299865186,1.0,0.5508206486701965,0.8700000047683716,0.0002500000118743628
0.0004445892700459808,1.0,0.5488606095314026,0.8700000047683716,0.0002500000118743628
0.0007940493524074554,1.0,0.5492088794708252,0.8700000047683716,0.0002500000118743628
0.00015656548202969134,1.0,0.5495795011520386,0.8700000047683716,0.0002500000118743628
0.0007194970385171473,1.0,0.5488178730010986,0.8700000047683716,0.0002500000118743628
0.002721760654821992,1.0,0.5574532151222229,0.8700000047683716,0.0002500000118743628
0.0004083164094481617,1.0,0.5721070766448975,0.8700000047683716,0.0002500000118743628
0.00139721785672009,1.0,0.5780618190765381,0.8700000047683716,0.0002500000118743628
0.0012307160068303347,1.0,0.5788233876228333,0.8700000047683716,0.0002500000118743628
0.00016414403216913342,1.0,0.5745642185211182,0.8700000047683716,0.0002500000118743628
0.0002986589097417891,1.0,0.5695924162864685,0.8700000047683716,0.0002500000118743628
0.00029012738377787173,1.0,0.566607654094696,0.8700000047683716,0.0002500000118743628
0.00068114377791062,1.0,0.5658829212188721,0.8700000047683716,0.0002500000118743628
0.00034506339579820633,1.0,0.5650202035903931,0.8700000047683716,0.0002500000118743628
0.00637191953137517,1.0,0.5574082732200623,0.8600000143051147,0.0002500000118743628
0.00020345253869891167,1.0,0.5339847803115845,0.8600000143051147,0.0002500000118743628
0.00032861807267181575,1.0,0.5339562296867371,0.8500000238418579,0.0002500000118743628
0.00019179137598257512,1.0,0.5364972949028015,0.8500000238418579,0.0002500000118743628
0.0008077010279521346,1.0,0.5397340059280396,0.8600000143051147,0.0002500000118743628
0.00039649903192184865,1.0,0.5421900749206543,0.8600000143051147,0.0002500000118743628
0.00045825683628208935,1.0,0.5442095398902893,0.8600000143051147,0.0002500000118743628
0.0007599173695780337,1.0,0.5470526218414307,0.8600000143051147,0.0002500000118743628
0.000962330843321979,1.0,0.5485661029815674,0.8600000143051147,0.0002500000118743628
0.00026413111481815577,1.0,0.5504888892173767,0.8600000143051147,0.0002500000118743628
0.000566809088923037,1.0,0.5530068874359131,0.8600000143051147,0.0002500000118743628
0.0003057187714148313,1.0,0.5563384294509888,0.8600000143051147,0.0002500000118743628
0.0016286075115203857,1.0,0.5698196887969971,0.8600000143051147,0.0002500000118743628
0.00019301034626550972,1.0,0.5779440402984619,0.8600000143051147,0.0002500000118743628
0.00039709568955004215,1.0,0.5808556079864502,0.8600000143051147,0.0002500000118743628
0.0001290606742259115,1.0,0.581886351108551,0.8600000143051147,0.0002500000118743628
0.00017766738892532885,1.0,0.5824253559112549,0.8600000143051147,0.0002500000118743628
0.000311308162054047,1.0,0.5828548669815063,0.8600000143051147,0.0002500000118743628
0.0009156822343356907,1.0,0.5818511843681335,0.8600000143051147,0.0002500000118743628
0.00041554064955562353,1.0,0.5817989706993103,0.8600000143051147,0.0002500000118743628
0.0003777964157052338,1.0,0.5822370648384094,0.8600000143051147,0.0002500000118743628
0.00014989436022005975,1.0,0.5821524262428284,0.8600000143051147,0.0002500000118743628
0.000259047606959939,1.0,0.582920253276825,0.8600000143051147,0.0002500000118743628
0.001244486658833921,1.0,0.5871129631996155,0.8600000143051147,0.0002500000118743628
0.0007320232689380646,1.0,0.5906840562820435,0.8600000143051147,0.0002500000118743628
0.0009031770168803632,1.0,0.5958763957023621,0.8600000143051147,0.0002500000118743628
0.020411647856235504,1.0,0.6031435132026672,0.8700000047683716,0.0002500000118743628
0.00042705965461209416,1.0,0.6519439220428467,0.8999999761581421,0.0002500000118743628
0.04002982750535011,0.9900000095367432,0.5574977397918701,0.8999999761581421,0.0002500000118743628
0.0017779746558517218,1.0,0.5836035013198853,0.8500000238418579,0.0002500000118743628
0.008114978671073914,1.0,0.6182644963264465,0.8399999737739563,0.0002500000118743628
0.0022252288181334734,1.0,0.6025433540344238,0.8299999833106995,0.0002500000118743628
0.0018028959166258574,1.0,0.5677077770233154,0.8600000143051147,0.0002500000118743628
0.0015534147387370467,1.0,0.5392006635665894,0.8600000143051147,0.0002500000118743628
0.0008082317071966827,1.0,0.5201871991157532,0.8799999952316284,0.0002500000118743628
0.000847550923936069,1.0,0.5076519250869751,0.8799999952316284,0.0002500000118743628
0.0011589544592425227,1.0,0.5000060796737671,0.8799999952316284,0.0002500000118743628
0.003272832604125142,1.0,0.48903509974479675,0.8899999856948853,0.0002500000118743628
0.0011373159941285849,1.0,0.4823801517486572,0.8899999856948853,0.0002500000118743628
0.0012365259462967515,1.0,0.48472827672958374,0.8899999856948853,0.0002500000118743628
0.0019140243530273438,1.0,0.488546758890152,0.8799999952316284,0.0001250000059371814
0.0013105164980515838,1.0,0.49380189180374146,0.8799999952316284,0.0001250000059371814
0.0003080912574660033,1.0,0.49948328733444214,0.8799999952316284,0.0001250000059371814
0.0005129796918481588,1.0,0.501760721206665,0.8799999952316284,0.0001250000059371814
0.00018838263349607587,1.0,0.5024271607398987,0.8799999952316284,0.0001250000059371814
0.0007878105971030891,1.0,0.5034320950508118,0.8799999952316284,0.0001250000059371814
0.00024103856412693858,1.0,0.5041676163673401,0.8799999952316284,0.0001250000059371814
0.0005363645614124835,1.0,0.5053696036338806,0.8799999952316284,0.0001250000059371814
0.0009980627801269293,1.0,0.5058009624481201,0.8799999952316284,0.0001250000059371814
0.0026631304062902927,1.0,0.5255666375160217,0.8799999952316284,0.0001250000059371814
0.0009761297842487693,1.0,0.5358309745788574,0.8799999952316284,0.0001250000059371814
0.0001908294652821496,1.0,0.5383507609367371,0.8799999952316284,0.0001250000059371814
0.00040935419383458793,1.0,0.5390079617500305,0.8799999952316284,0.0001250000059371814
0.0010612731566652656,1.0,0.5401930809020996,0.8799999952316284,0.0001250000059371814
0.0013877063756808639,1.0,0.5423414707183838,0.8799999952316284,0.0001250000059371814
0.000538746768143028,1.0,0.5415008664131165,0.8799999952316284,0.0001250000059371814
0.00032693668617866933,1.0,0.5404012799263,0.8799999952316284,0.0001250000059371814
0.0012092989636585116,1.0,0.5377359986305237,0.8799999952316284,0.0001250000059371814
0.0009818576509132981,1.0,0.536949098110199,0.8799999952316284,0.0001250000059371814
0.00024749370641075075,1.0,0.5357855558395386,0.8799999952316284,0.0001250000059371814
0.0011594945099204779,1.0,0.5388224720954895,0.8799999952316284,0.0001250000059371814
0.0006516684079542756,1.0,0.5385251045227051,0.8799999952316284,0.0001250000059371814
0.0001919457281474024,1.0,0.5379786491394043,0.8799999952316284,0.0001250000059371814
0.0007504413370043039,1.0,0.5353764891624451,0.8799999952316284,0.0001250000059371814
0.0003338257665745914,1.0,0.534084141254425,0.8799999952316284,0.0001250000059371814
0.0004626440932042897,1.0,0.5339920520782471,0.8799999952316284,0.0001250000059371814
0.00018181513587478548,1.0,0.5344545841217041,0.8799999952316284,0.0001250000059371814
0.0004023890942335129,1.0,0.5340858697891235,0.8799999952316284,0.0001250000059371814
0.00037163440720178187,1.0,0.5350217223167419,0.8799999952316284,0.0001250000059371814
0.0006038894644007087,1.0,0.5355775952339172,0.8799999952316284,0.0001250000059371814
0.0005142728332430124,1.0,0.5359472632408142,0.8799999952316284,0.0001250000059371814
0.0003204807871952653,1.0,0.5343703627586365,0.8799999952316284,0.0001250000059371814
0.0010556514607742429,1.0,0.5350015759468079,0.8799999952316284,0.0001250000059371814
0.000346389104379341,1.0,0.5349283218383789,0.8799999952316284,0.0001250000059371814
0.000306319328956306,1.0,0.5347366333007812,0.8799999952316284,0.0001250000059371814
0.0005682899500243366,1.0,0.5346738696098328,0.8799999952316284,0.0001250000059371814
0.0003853056696243584,1.0,0.5349541902542114,0.8799999952316284,0.0001250000059371814
0.00028147725970484316,1.0,0.5350202322006226,0.8799999952316284,0.0001250000059371814
0.0009311533067375422,1.0,0.5356211066246033,0.8799999952316284,0.0001250000059371814
0.000343052000971511,1.0,0.5367100238800049,0.8799999952316284,0.0001250000059371814
0.0003896525886375457,1.0,0.5365180969238281,0.8799999952316284,0.0001250000059371814
0.00014501978876069188,1.0,0.536532998085022,0.8799999952316284,0.0001250000059371814
0.0003792016941588372,1.0,0.5383473038673401,0.8799999952316284,0.0001250000059371814
0.0011125437449663877,1.0,0.5458499789237976,0.8799999952316284,0.0001250000059371814
0.00022809643996879458,1.0,0.5499550700187683,0.8799999952316284,0.0001250000059371814
0.00021275243489071727,1.0,0.5513607263565063,0.8799999952316284,0.0001250000059371814
0.0009255792247131467,1.0,0.5521544814109802,0.8799999952316284,0.0001250000059371814
0.0006878736894577742,1.0,0.5539560317993164,0.8799999952316284,0.0001250000059371814
0.00010711805225582793,1.0,0.5539352893829346,0.8799999952316284,0.0001250000059371814
0.0008178756106644869,1.0,0.5541361570358276,0.8799999952316284,0.0001250000059371814
0.00017992212087847292,1.0,0.554496705532074,0.8799999952316284,9.999999747378752e-05
0.00031827238854020834,1.0,0.553871750831604,0.8799999952316284,9.999999747378752e-05
0.00010677988029783592,1.0,0.552980363368988,0.8799999952316284,9.999999747378752e-05
0.00037529796827584505,1.0,0.552219569683075,0.8799999952316284,9.999999747378752e-05
0.001044956035912037,1.0,0.5523317456245422,0.8799999952316284,9.999999747378752e-05
0.0005745532107539475,1.0,0.5565358400344849,0.8799999952316284,9.999999747378752e-05
0.00014588328485842794,1.0,0.5581652522087097,0.8799999952316284,9.999999747378752e-05
0.00035799530451186,1.0,0.5588433742523193,0.8799999952316284,9.999999747378752e-05
0.00018782827828545123,1.0,0.5581203699111938,0.8799999952316284,9.999999747378752e-05
0.00028231885517016053,1.0,0.5576083660125732,0.8799999952316284,9.999999747378752e-05
0.0005224462947808206,1.0,0.5575563907623291,0.8799999952316284,9.999999747378752e-05
0.00045720505295321345,1.0,0.5576915740966797,0.8799999952316284,9.999999747378752e-05
0.00017286209913436323,1.0,0.556846559047699,0.8799999952316284,9.999999747378752e-05
0.00025236132205463946,1.0,0.555900514125824,0.8799999952316284,9.999999747378752e-05
0.00025485630612820387,1.0,0.5554788112640381,0.8799999952316284,9.999999747378752e-05
0.0003149972471874207,1.0,0.5555254220962524,0.8799999952316284,9.999999747378752e-05
0.0012619511689990759,1.0,0.5589088201522827,0.8799999952316284,9.999999747378752e-05
0.0001683192531345412,1.0,0.5603052973747253,0.8799999952316284,9.999999747378752e-05
0.00015110251842997968,1.0,0.5603092908859253,0.8799999952316284,9.999999747378752e-05
0.0002600348670966923,1.0,0.559938371181488,0.8799999952316284,9.999999747378752e-05
0.00020609782950486988,1.0,0.5589868426322937,0.8799999952316284,9.999999747378752e-05
0.00016113920719362795,1.0,0.558810293674469,0.8799999952316284,9.999999747378752e-05
0.0006560257752425969,1.0,0.5588223934173584,0.8799999952316284,9.999999747378752e-05
0.0017687234794721007,1.0,0.5491204261779785,0.8799999952316284,9.999999747378752e-05
0.00024168383970391005,1.0,0.5384133458137512,0.8799999952316284,9.999999747378752e-05
0.00012058005086146295,1.0,0.5360419750213623,0.8799999952316284,9.999999747378752e-05
0.0004726620391011238,1.0,0.5373823642730713,0.8799999952316284,9.999999747378752e-05
0.00024617507006041706,1.0,0.5391618013381958,0.8799999952316284,9.999999747378752e-05
0.00012119151506340131,1.0,0.5406935214996338,0.8799999952316284,9.999999747378752e-05
0.0006711065652780235,1.0,0.5440248847007751,0.8799999952316284,9.999999747378752e-05
0.00013340983423404396,1.0,0.5457496643066406,0.8799999952316284,9.999999747378752e-05
0.00018542153702583164,1.0,0.5469953417778015,0.8799999952316284,9.999999747378752e-05
0.0004732786910608411,1.0,0.5497859716415405,0.8799999952316284,9.999999747378752e-05
0.0001703722809907049,1.0,0.5513991713523865,0.8799999952316284,9.999999747378752e-05
0.0003446054470259696,1.0,0.5525798797607422,0.8799999952316284,9.999999747378752e-05
0.0002941082348115742,1.0,0.5536603927612305,0.8799999952316284,9.999999747378752e-05
0.0009065722697414458,1.0,0.5567147731781006,0.8799999952316284,9.999999747378752e-05
0.00020794531155843288,1.0,0.559099555015564,0.8799999952316284,9.999999747378752e-05
0.00018466688925400376,1.0,0.5602142214775085,0.8799999952316284,9.999999747378752e-05
0.00023911340394988656,1.0,0.5608705282211304,0.8799999952316284,9.999999747378752e-05
0.0012853730004280806,1.0,0.5596000552177429,0.8799999952316284,9.999999747378752e-05
0.0002104623126797378,1.0,0.5578487515449524,0.8799999952316284,9.999999747378752e-05
0.00013331561058294028,1.0,0.5574684143066406,0.8799999952316284,9.999999747378752e-05
0.0001719098218018189,1.0,0.5571936964988708,0.8799999952316284,9.999999747378752e-05
0.00010172211477765813,1.0,0.5568559169769287,0.8799999952316284,9.999999747378752e-05
0.00047527195420116186,1.0,0.5590669512748718,0.8799999952316284,9.999999747378752e-05
0.00047103865654207766,1.0,0.5610108971595764,0.8799999952316284,9.999999747378752e-05
9.608497202862054e-05,1.0,0.5610693097114563,0.8799999952316284,9.999999747378752e-05
0.005112471990287304,1.0,0.5922234058380127,0.8999999761581421,9.999999747378752e-05
0.0004944042302668095,1.0,0.6032428741455078,0.8999999761581421,9.999999747378752e-05
0.00015497150889132172,1.0,0.6012783646583557,0.8999999761581421,9.999999747378752e-05
0.00014907809963915497,1.0,0.5958784222602844,0.8999999761581421,9.999999747378752e-05
0.00026788486866280437,1.0,0.5904292464256287,0.8999999761581421,9.999999747378752e-05
0.0008098716498352587,1.0,0.5849841237068176,0.8999999761581421,9.999999747378752e-05
0.00030479097040370107,1.0,0.5801021456718445,0.8899999856948853,9.999999747378752e-05
9.419656998943537e-05,1.0,0.5756856799125671,0.8899999856948853,9.999999747378752e-05
0.0002011199831031263,1.0,0.5717276334762573,0.8799999952316284,9.999999747378752e-05
0.000394547387259081,1.0,0.5689275860786438,0.8799999952316284,9.999999747378752e-05
0.0003004397149197757,1.0,0.5659111142158508,0.8799999952316284,9.999999747378752e-05
0.0008193810936063528,1.0,0.5666490197181702,0.8799999952316284,9.999999747378752e-05
0.000220143876504153,1.0,0.5654001832008362,0.8799999952316284,9.999999747378752e-05
0.00020243215840309858,1.0,0.5635414123535156,0.8799999952316284,9.999999747378752e-05
0.007654192391782999,1.0,0.4804644286632538,0.8700000047683716,9.999999747378752e-05
0.0010992239695042372,1.0,0.49069079756736755,0.8299999833106995,9.999999747378752e-05
0.002989652566611767,1.0,0.48576122522354126,0.8299999833106995,9.999999747378752e-05
0.00027703808154910803,1.0,0.485904335975647,0.8500000238418579,9.999999747378752e-05
0.0002145048201782629,1.0,0.4885900914669037,0.8600000143051147,9.999999747378752e-05
0.00016321495058946311,1.0,0.4923846125602722,0.8700000047683716,9.999999747378752e-05
0.00016022223280742764,1.0,0.497008353471756,0.8799999952316284,9.999999747378752e-05
0.0002974949893541634,1.0,0.5024772882461548,0.8799999952316284,9.999999747378752e-05
0.00027115465491078794,1.0,0.5094163417816162,0.8799999952316284,9.999999747378752e-05
0.0007212595082819462,1.0,0.5164763331413269,0.8899999856948853,9.999999747378752e-05
0.00026536735822446644,1.0,0.5237116813659668,0.8899999856948853,9.999999747378752e-05
0.0003074427950195968,1.0,0.5287540555000305,0.8899999856948853,9.999999747378752e-05
0.00024000190023798496,1.0,0.5327042937278748,0.8899999856948853,9.999999747378752e-05
8.042252738960087e-05,1.0,0.535912036895752,0.8899999856948853,9.999999747378752e-05
0.0003298721567261964,1.0,0.5381896495819092,0.8899999856948853,9.999999747378752e-05
0.00021354197815526277,1.0,0.5408636927604675,0.8899999856948853,9.999999747378752e-05
0.0008021407411433756,1.0,0.5422946810722351,0.8899999856948853,9.999999747378752e-05
0.0013843677006661892,1.0,0.5512086749076843,0.8899999856948853,9.999999747378752e-05
0.00011376816109986976,1.0,0.5544475317001343,0.8899999856948853,9.999999747378752e-05
0.00035977267543785274,1.0,0.5563074350357056,0.8899999856948853,9.999999747378752e-05
0.00019188264559488744,1.0,0.5557823777198792,0.8899999856948853,9.999999747378752e-05
0.0012261548545211554,1.0,0.5512651801109314,0.8899999856948853,9.999999747378752e-05
0.0006851009093225002,1.0,0.5521517395973206,0.8899999856948853,9.999999747378752e-05
0.0001228370820172131,1.0,0.5519025325775146,0.8899999856948853,9.999999747378752e-05
0.000554558471776545,1.0,0.5557175874710083,0.8899999856948853,9.999999747378752e-05
0.0002019679668592289,1.0,0.557502269744873,0.8899999856948853,9.999999747378752e-05
0.0004584870475810021,1.0,0.5601774454116821,0.8899999856948853,9.999999747378752e-05
0.00029967562295496464,1.0,0.5617877244949341,0.8899999856948853,9.999999747378752e-05
0.00010297144763171673,1.0,0.5632301568984985,0.8899999856948853,9.999999747378752e-05
0.00020131310157012194,1.0,0.5634856820106506,0.8899999856948853,9.999999747378752e-05
0.00015655507741030306,1.0,0.562893271446228,0.8799999952316284,9.999999747378752e-05
0.0001749612420098856,1.0,0.5623733997344971,0.8799999952316284,9.999999747378752e-05
0.00031444881460629404,1.0,0.5613465309143066,0.8799999952316284,9.999999747378752e-05
0.0001348795194644481,1.0,0.5607480406761169,0.8799999952316284,9.999999747378752e-05
0.00019286241149529815,1.0,0.561572790145874,0.8799999952316284,9.999999747378752e-05
0.00030855380464345217,1.0,0.5622192621231079,0.8799999952316284,9.999999747378752e-05
0.0001534048788016662,1.0,0.5619248747825623,0.8799999952316284,9.999999747378752e-05
0.0005731519195251167,1.0,0.5644363164901733,0.8799999952316284,9.999999747378752e-05
0.00020795628370251507,1.0,0.5671684145927429,0.8799999952316284,9.999999747378752e-05
0.00016326535842381418,1.0,0.5681823492050171,0.8799999952316284,9.999999747378752e-05
6.0370359278749675e-05,1.0,0.5676097869873047,0.8799999952316284,9.999999747378752e-05
0.0001873626169981435,1.0,0.5667584538459778,0.8799999952316284,9.999999747378752e-05
7.970617298269644e-05,1.0,0.5654769539833069,0.8799999952316284,9.999999747378752e-05
0.0001949498982867226,1.0,0.5653185844421387,0.8799999952316284,9.999999747378752e-05
0.00020209881768096238,1.0,0.5651448965072632,0.8799999952316284,9.999999747378752e-05
0.0001604861463420093,1.0,0.5652676224708557,0.8799999952316284,9.999999747378752e-05
0.0001334077533101663,1.0,0.564659595489502,0.8799999952316284,9.999999747378752e-05
0.00019504215742927045,1.0,0.5639094710350037,0.8799999952316284,9.999999747378752e-05
0.0004837811866309494,1.0,0.5614144802093506,0.8799999952316284,9.999999747378752e-05
0.00016807837528176606,1.0,0.5607163906097412,0.8799999952316284,9.999999747378752e-05
0.00017464987467974424,1.0,0.5603548288345337,0.8799999952316284,9.999999747378752e-05
0.00016507106192875654,1.0,0.5606964826583862,0.8799999952316284,9.999999747378752e-05
0.00020555777882691473,1.0,0.560945987701416,0.8799999952316284,9.999999747378752e-05
0.00026923074619844556,1.0,0.5616243481636047,0.8799999952316284,9.999999747378752e-05
0.00024895239039324224,1.0,0.5623913407325745,0.8799999952316284,9.999999747378752e-05
0.00012463638267945498,1.0,0.563218355178833,0.8799999952316284,9.999999747378752e-05
4.752791573991999e-05,1.0,0.5629341006278992,0.8799999952316284,9.999999747378752e-05
0.0007893397123552859,1.0,0.5642211437225342,0.8799999952316284,9.999999747378752e-05
0.0002359658683417365,1.0,0.5638396739959717,0.8799999952316284,9.999999747378752e-05
7.618717791046947e-05,1.0,0.5637901425361633,0.8799999952316284,9.999999747378752e-05
0.0003231876762583852,1.0,0.5640114545822144,0.8799999952316284,9.999999747378752e-05
0.00020223464525770396,1.0,0.5651975274085999,0.8799999952316284,9.999999747378752e-05
5.758174302172847e-05,1.0,0.5658465623855591,0.8799999952316284,9.999999747378752e-05
0.0002738805196713656,1.0,0.566281259059906,0.8799999952316284,9.999999747378752e-05
0.00013631318870466202,1.0,0.5666261911392212,0.8799999952316284,9.999999747378752e-05
4.960425212630071e-05,1.0,0.5663954615592957,0.8799999952316284,9.999999747378752e-05
5.758412225986831e-05,1.0,0.565996527671814,0.8799999952316284,9.999999747378752e-05
0.00044487431296147406,1.0,0.5669857263565063,0.8799999952316284,9.999999747378752e-05
5.2171355491736904e-05,1.0,0.5681334733963013,0.8799999952316284,9.999999747378752e-05
0.0007503358065150678,1.0,0.5814006328582764,0.8799999952316284,9.999999747378752e-05
0.0002351380098843947,1.0,0.5847975015640259,0.8799999952316284,9.999999747378752e-05
0.00016871967818588018,1.0,0.5851401686668396,0.8799999952316284,9.999999747378752e-05
6.294372724369168e-05,1.0,0.5833338499069214,0.8799999952316284,9.999999747378752e-05
0.00046098779421299696,1.0,0.5823026299476624,0.8799999952316284,9.999999747378752e-05
0.00019599079678300768,1.0,0.5815823078155518,0.8799999952316284,9.999999747378752e-05
0.00014936315710656345,1.0,0.5805840492248535,0.8799999952316284,9.999999747378752e-05
0.00015516922576352954,1.0,0.5798056721687317,0.8799999952316284,9.999999747378752e-05
8.724071085453033e-05,1.0,0.577745795249939,0.8799999952316284,9.999999747378752e-05
0.00011407292186049744,1.0,0.5767524838447571,0.8799999952316284,9.999999747378752e-05
0.00016219951794482768,1.0,0.5759166479110718,0.8799999952316284,9.999999747378752e-05
0.00016932515427470207,1.0,0.574425995349884,0.8799999952316284,9.999999747378752e-05
7.937237387523055e-05,1.0,0.5727759003639221,0.8799999952316284,9.999999747378752e-05
0.00024548853980377316,1.0,0.5724700689315796,0.8799999952316284,9.999999747378752e-05
0.00013309736095834523,1.0,0.5723335146903992,0.8799999952316284,9.999999747378752e-05
0.00081147305900231,1.0,0.5753194093704224,0.8799999952316284,9.999999747378752e-05
0.00010818139708135277,1.0,0.5750395059585571,0.8799999952316284,9.999999747378752e-05
0.0001999476517084986,1.0,0.575433611869812,0.8799999952316284,9.999999747378752e-05
6.206445686984807e-05,1.0,0.5756221413612366,0.8799999952316284,9.999999747378752e-05
7.474864833056927e-05,1.0,0.5752689242362976,0.8799999952316284,9.999999747378752e-05
0.00013183611736167222,1.0,0.5748732686042786,0.8799999952316284,9.999999747378752e-05
0.0001408113312209025,1.0,0.5750430822372437,0.8799999952316284,9.999999747378752e-05
0.000203131785383448,1.0,0.5760252475738525,0.8799999952316284,9.999999747378752e-05
0.000489152385853231,1.0,0.5790315866470337,0.8799999952316284,9.999999747378752e-05
0.00015017823898233473,1.0,0.5798885822296143,0.8799999952316284,9.999999747378752e-05
0.00013637404481414706,1.0,0.5801553130149841,0.8799999952316284,9.999999747378752e-05
6.770605978090316e-05,1.0,0.5795531868934631,0.8799999952316284,9.999999747378752e-05
0.00014512492634821683,1.0,0.578995943069458,0.8799999952316284,9.999999747378752e-05
0.000526372401509434,1.0,0.5787163972854614,0.8799999952316284,9.999999747378752e-05
0.000334928889060393,1.0,0.5807064175605774,0.8799999952316284,9.999999747378752e-05
0.0032545968424528837,1.0,0.5452883243560791,0.8799999952316284,9.999999747378752e-05
3.791866038227454e-05,1.0,0.5168083906173706,0.8600000143051147,9.999999747378752e-05
7.073740562191233e-05,1.0,0.5174746513366699,0.8700000047683716,9.999999747378752e-05
0.000128085128380917,1.0,0.517728328704834,0.8700000047683716,9.999999747378752e-05
0.0013441388728097081,1.0,0.49938201904296875,0.8600000143051147,9.999999747378752e-05
0.00015736994100734591,1.0,0.4964820444583893,0.8700000047683716,9.999999747378752e-05
0.00015928290667943656,1.0,0.49851715564727783,0.8700000047683716,9.999999747378752e-05
0.00028340803692117333,1.0,0.5037410259246826,0.8700000047683716,9.999999747378752e-05
0.0003506520006339997,1.0,0.5088554620742798,0.8799999952316284,9.999999747378752e-05
0.0001501589867984876,1.0,0.5136515498161316,0.8799999952316284,9.999999747378752e-05
0.00011845681729028001,1.0,0.5172165632247925,0.8799999952316284,9.999999747378752e-05
0.0006685134139843285,1.0,0.5251489877700806,0.8799999952316284,9.999999747378752e-05
0.0001069821955752559,1.0,0.5317975878715515,0.8799999952316284,9.999999747378752e-05
0.00028601655503734946,1.0,0.537617027759552,0.8799999952316284,9.999999747378752e-05
0.00033746365807019174,1.0,0.5440195202827454,0.8799999952316284,9.999999747378752e-05
0.0017717054579406977,1.0,0.5488970279693604,0.8799999952316284,9.999999747378752e-05
0.00012290013546589762,1.0,0.5529228448867798,0.8799999952316284,9.999999747378752e-05
0.0005750486743636429,1.0,0.5572839975357056,0.8799999952316284,9.999999747378752e-05
8.8338645582553e-05,1.0,0.559877872467041,0.8799999952316284,9.999999747378752e-05
8.185170736396685e-05,1.0,0.5607248544692993,0.8799999952316284,9.999999747378752e-05
0.00011165886098751798,1.0,0.5610545873641968,0.8799999952316284,9.999999747378752e-05
0.00017962271522264928,1.0,0.562208354473114,0.8799999952316284,9.999999747378752e-05
0.0004671596107073128,1.0,0.5645983219146729,0.8799999952316284,9.999999747378752e-05
0.0002820123336277902,1.0,0.5666301846504211,0.8799999952316284,9.999999747378752e-05
8.036517829168588e-05,1.0,0.5689070820808411,0.8799999952316284,9.999999747378752e-05
0.0003031463420484215,1.0,0.5720592737197876,0.8799999952316284,9.999999747378752e-05
0.0004358007281553,1.0,0.5738780498504639,0.8799999952316284,9.999999747378752e-05
0.0003816738026216626,1.0,0.5749680399894714,0.8799999952316284,9.999999747378752e-05
0.0002891933545470238,1.0,0.5774905681610107,0.8799999952316284,9.999999747378752e-05
9.955705900210887e-05,1.0,0.579152524471283,0.8799999952316284,9.999999747378752e-05
5.853690527146682e-05,1.0,0.5793439149856567,0.8799999952316284,9.999999747378752e-05
0.00047862486098892987,1.0,0.5825347304344177,0.8799999952316284,9.999999747378752e-05
0.0003845645987894386,1.0,0.5862302184104919,0.8799999952316284,9.999999747378752e-05
0.00044274888932704926,1.0,0.5919663310050964,0.8799999952316284,9.999999747378752e-05
0.00010871728591155261,1.0,0.5931384563446045,0.8799999952316284,9.999999747378752e-05
0.00013632512127514929,1.0,0.5932586193084717,0.8799999952316284,9.999999747378752e-05
6.918320286786184e-05,1.0,0.5925135016441345,0.8799999952316284,9.999999747378752e-05
0.0002474941429682076,1.0,0.5936912298202515,0.8799999952316284,9.999999747378752e-05
8.029124728636816e-05,1.0,0.5939102172851562,0.8799999952316284,9.999999747378752e-05
0.0002033201017184183,1.0,0.5941503643989563,0.8799999952316284,9.999999747378752e-05
0.00026861592778004706,1.0,0.5957015156745911,0.8799999952316284,9.999999747378752e-05
0.0004098669160157442,1.0,0.5989827513694763,0.8799999952316284,9.999999747378752e-05
0.0001448682160116732,1.0,0.5996458530426025,0.8799999952316284,9.999999747378752e-05
9.217023034580052e-05,1.0,0.5989935994148254,0.8799999952316284,9.999999747378752e-05
0.0004158081137575209,1.0,0.6009060144424438,0.8799999952316284,9.999999747378752e-05
6.874721293570474e-05,1.0,0.6020732522010803,0.8799999952316284,9.999999747378752e-05
0.00013323045277502388,1.0,0.602368950843811,0.8799999952316284,9.999999747378752e-05
5.086309101898223e-05,1.0,0.6026262640953064,0.8799999952316284,9.999999747378752e-05
0.00010800547170219943,1.0,0.6028343439102173,0.8799999952316284,9.999999747378752e-05
0.00036015239311382174,1.0,0.6029329895973206,0.8799999952316284,9.999999747378752e-05
0.00011145373719045892,1.0,0.6032042503356934,0.8799999952316284,9.999999747378752e-05
0.00010730171925388277,1.0,0.603489100933075,0.8799999952316284,9.999999747378752e-05
3.712582474690862e-05,1.0,0.6030587553977966,0.8799999952316284,9.999999747378752e-05
0.0004913121229037642,1.0,0.6073665618896484,0.8799999952316284,9.999999747378752e-05
7.389426173176616e-05,1.0,0.6092424988746643,0.8799999952316284,9.999999747378752e-05
9.177428728435189e-05,1.0,0.6092256307601929,0.8799999952316284,9.999999747378752e-05
0.0002530490455683321,1.0,0.6102752089500427,0.8799999952316284,9.999999747378752e-05
8.917244849726558e-05,1.0,0.6112315654754639,0.8799999952316284,9.999999747378752e-05
0.00036854748032055795,1.0,0.6117871999740601,0.8799999952316284,9.999999747378752e-05
0.0004989729495719075,1.0,0.6140982508659363,0.8799999952316284,9.999999747378752e-05
9.143970964942127e-05,1.0,0.6133286952972412,0.8799999952316284,9.999999747378752e-05
8.452308247797191e-05,1.0,0.6130196452140808,0.8799999952316284,9.999999747378752e-05
0.000156880691065453,1.0,0.6129701137542725,0.8799999952316284,9.999999747378752e-05
0.0001132816105382517,1.0,0.6132820248603821,0.8799999952316284,9.999999747378752e-05
7.081837247824296e-05,1.0,0.6137145161628723,0.8799999952316284,9.999999747378752e-05
9.659305942477658e-05,1.0,0.6146292686462402,0.8799999952316284,9.999999747378752e-05
0.0001039294438669458,1.0,0.6145996451377869,0.8799999952316284,9.999999747378752e-05
5.625333506031893e-05,1.0,0.6142122149467468,0.8799999952316284,9.999999747378752e-05
7.112551247701049e-05,1.0,0.6146725416183472,0.8799999952316284,9.999999747378752e-05
6.650351133430377e-05,1.0,0.6142710447311401,0.8799999952316284,9.999999747378752e-05
0.00012246771075297147,1.0,0.6148012280464172,0.8799999952316284,9.999999747378752e-05
6.25638640485704e-05,1.0,0.6146172285079956,0.8799999952316284,9.999999747378752e-05
0.00020807817054446787,1.0,0.6193979382514954,0.8799999952316284,9.999999747378752e-05
0.0003714542544912547,1.0,0.622137725353241,0.8799999952316284,9.999999747378752e-05
0.00038595509249716997,1.0,0.6234191060066223,0.8799999952316284,9.999999747378752e-05
4.953959069098346e-05,1.0,0.6233727931976318,0.8799999952316284,9.999999747378752e-05
0.00024402543203905225,1.0,0.6235760450363159,0.8799999952316284,9.999999747378752e-05
5.349151251721196e-05,1.0,0.6227397322654724,0.8799999952316284,9.999999747378752e-05
0.00011795270256698132,1.0,0.6229643225669861,0.8799999952316284,9.999999747378752e-05
5.798977872473188e-05,1.0,0.6216506958007812,0.8799999952316284,9.999999747378752e-05
0.00033269188133999705,1.0,0.6213772296905518,0.8799999952316284,9.999999747378752e-05
3.204106178600341e-05,1.0,0.6188890933990479,0.8799999952316284,9.999999747378752e-05
4.633015123545192e-05,1.0,0.6178992986679077,0.8799999952316284,9.999999747378752e-05
6.720085366396233e-05,1.0,0.6183373332023621,0.8799999952316284,9.999999747378752e-05
9.28442386793904e-05,1.0,0.6192061901092529,0.8799999952316284,9.999999747378752e-05
0.00028986827237531543,1.0,0.6211691498756409,0.8799999952316284,9.999999747378752e-05
0.00010383994958829135,1.0,0.6220528483390808,0.8799999952316284,9.999999747378752e-05
8.417718345299363e-05,1.0,0.6222814321517944,0.8799999952316284,9.999999747378752e-05
0.00021789054153487086,1.0,0.6244274377822876,0.8799999952316284,9.999999747378752e-05
0.0002369714347878471,1.0,0.6280086040496826,0.8799999952316284,9.999999747378752e-05
0.0002497277164366096,1.0,0.6308025121688843,0.8799999952316284,9.999999747378752e-05
7.621962868142873e-05,1.0,0.6313244104385376,0.8799999952316284,9.999999747378752e-05
6.366709567373618e-05,1.0,0.6318406462669373,0.8799999952316284,9.999999747378752e-05
0.00022333273955155164,1.0,0.6292955875396729,0.8799999952316284,9.999999747378752e-05
0.00011613176320679486,1.0,0.6257995367050171,0.8799999952316284,9.999999747378752e-05
0.00010774617112474516,1.0,0.6244866847991943,0.8799999952316284,9.999999747378752e-05
0.0003324052086099982,1.0,0.6291608214378357,0.8799999952316284,9.999999747378752e-05
9.262409002985805e-05,1.0,0.6327996850013733,0.8799999952316284,9.999999747378752e-05
6.332869816105813e-05,1.0,0.6341630816459656,0.8799999952316284,9.999999747378752e-05
5.863560363650322e-05,1.0,0.6342747211456299,0.8799999952316284,9.999999747378752e-05
3.277518771938048e-05,1.0,0.6332534551620483,0.8799999952316284,9.999999747378752e-05
5.392995080910623e-05,1.0,0.6324438452720642,0.8799999952316284,9.999999747378752e-05
0.00023616965336259454,1.0,0.6329006552696228,0.8799999952316284,9.999999747378752e-05
4.542806709650904e-05,1.0,0.6329679489135742,0.8799999952316284,9.999999747378752e-05
5.0875547458417714e-05,1.0,0.6332513689994812,0.8799999952316284,9.999999747378752e-05
0.00010323539027012885,1.0,0.633134126663208,0.8799999952316284,9.999999747378752e-05
0.00019557490304578096,1.0,0.6359894275665283,0.8799999952316284,9.999999747378752e-05
0.0001831998524721712,1.0,0.6398592591285706,0.8799999952316284,9.999999747378752e-05
6.493712862720713e-05,1.0,0.6407387256622314,0.8799999952316284,9.999999747378752e-05
0.0004055337922181934,1.0,0.6397581696510315,0.8799999952316284,9.999999747378752e-05
4.7199748223647475e-05,1.0,0.633475661277771,0.8799999952316284,9.999999747378752e-05
2.604320616228506e-05,1.0,0.6308648586273193,0.8799999952316284,9.999999747378752e-05
2.7504389436217025e-05,1.0,0.630118727684021,0.8799999952316284,9.999999747378752e-05
0.00022035680012777448,1.0,0.6302473545074463,0.8799999952316284,9.999999747378752e-05
4.0145841921912506e-05,1.0,0.6304180026054382,0.8799999952316284,9.999999747378752e-05
7.53101339796558e-05,1.0,0.6307664513587952,0.8799999952316284,9.999999747378752e-05
8.613702084403485e-05,1.0,0.6308988332748413,0.8799999952316284,9.999999747378752e-05
7.261173595907167e-05,1.0,0.6305918097496033,0.8799999952316284,9.999999747378752e-05
0.00030653231078758836,1.0,0.626386284828186,0.8799999952316284,9.999999747378752e-05
3.260876110289246e-05,1.0,0.6213685870170593,0.8799999952316284,9.999999747378752e-05
3.106889926129952e-05,1.0,0.6199758648872375,0.8799999952316284,9.999999747378752e-05
7.272893708432093e-05,1.0,0.6211321949958801,0.8799999952316284,9.999999747378752e-05
0.00023801815405022353,1.0,0.6222105622291565,0.8799999952316284,9.999999747378752e-05
3.518114681355655e-05,1.0,0.6219947338104248,0.8799999952316284,9.999999747378752e-05
0.00011347802501404658,1.0,0.6232728362083435,0.8799999952316284,9.999999747378752e-05
0.00037423157482407987,1.0,0.6240546703338623,0.8799999952316284,9.999999747378752e-05
0.0002253559068776667,1.0,0.6208236217498779,0.8799999952316284,9.999999747378752e-05
8.717189484741539e-05,1.0,0.6224566102027893,0.8799999952316284,9.999999747378752e-05
0.0002552986843511462,1.0,0.6279935836791992,0.8799999952316284,9.999999747378752e-05
2.8007278160657734e-05,1.0,0.6305074095726013,0.8799999952316284,9.999999747378752e-05
2.2282016288954765e-05,1.0,0.6313106417655945,0.8799999952316284,9.999999747378752e-05
2.591195698187221e-05,1.0,0.6320587396621704,0.8799999952316284,9.999999747378752e-05
0.0003136961895506829,1.0,0.636753261089325,0.8799999952316284,9.999999747378752e-05
3.290870154160075e-05,1.0,0.6387630701065063,0.8799999952316284,9.999999747378752e-05
4.106447522644885e-05,1.0,0.6397104263305664,0.8799999952316284,9.999999747378752e-05
7.927995466161519e-05,1.0,0.6405486464500427,0.8799999952316284,9.999999747378752e-05
7.699820707784966e-05,1.0,0.6413645148277283,0.8799999952316284,9.999999747378752e-05
0.00010690479393815622,1.0,0.6423361897468567,0.8799999952316284,9.999999747378752e-05
4.97814362461213e-05,1.0,0.6424601674079895,0.8799999952316284,9.999999747378752e-05
6.988144014030695e-05,1.0,0.6409448981285095,0.8799999952316284,9.999999747378752e-05
5.264168430585414e-05,1.0,0.6396165490150452,0.8799999952316284,9.999999747378752e-05
6.180128548294306e-05,1.0,0.6393827199935913,0.8799999952316284,9.999999747378752e-05
2.8514918085420504e-05,1.0,0.6393622756004333,0.8799999952316284,9.999999747378752e-05
0.00013337275595404208,1.0,0.6398846507072449,0.8799999952316284,9.999999747378752e-05
0.0003751901676878333,1.0,0.6398216485977173,0.8799999952316284,9.999999747378752e-05
3.5749064409174025e-05,1.0,0.6394544839859009,0.8799999952316284,9.999999747378752e-05
4.028502371511422e-05,1.0,0.639320433139801,0.8799999952316284,9.999999747378752e-05
9.230768046109006e-05,1.0,0.6406369209289551,0.8799999952316284,9.999999747378752e-05
0.00018288851424586028,1.0,0.6455865502357483,0.8799999952316284,9.999999747378752e-05
5.674591375282034e-05,1.0,0.6468582153320312,0.8799999952316284,9.999999747378752e-05
9.464528557145968e-05,1.0,0.6468156576156616,0.8799999952316284,9.999999747378752e-05
9.71629997366108e-05,1.0,0.6465061902999878,0.8799999952316284,9.999999747378752e-05
0.00018479482969269156,1.0,0.6480138897895813,0.8799999952316284,9.999999747378752e-05
3.414666571188718e-05,1.0,0.6480230093002319,0.8799999952316284,9.999999747378752e-05
0.0002641543105710298,1.0,0.6511046886444092,0.8799999952316284,9.999999747378752e-05
2.2601039745495655e-05,1.0,0.6519123911857605,0.8799999952316284,9.999999747378752e-05
4.3519008613657206e-05,1.0,0.6520654559135437,0.8799999952316284,9.999999747378752e-05
2.209587546531111e-05,1.0,0.6518743634223938,0.8799999952316284,9.999999747378752e-05
0.00017397658666595817,1.0,0.6534015536308289,0.8799999952316284,9.999999747378752e-05
0.0003225558320991695,1.0,0.6520404815673828,0.8799999952316284,9.999999747378752e-05
3.796812234213576e-05,1.0,0.6495029330253601,0.8799999952316284,9.999999747378752e-05
0.00018022427684627473,1.0,0.6462903022766113,0.8799999952316284,9.999999747378752e-05
2.571541517681908e-05,1.0,0.6447696089744568,0.8799999952316284,9.999999747378752e-05
9.602304635336623e-05,1.0,0.6446859836578369,0.8799999952316284,9.999999747378752e-05
2.2988209821050987e-05,1.0,0.6427563428878784,0.8700000047683716,9.999999747378752e-05
0.0002522790164221078,1.0,0.6446285843849182,0.8700000047683716,9.999999747378752e-05
6.158868927741423e-05,1.0,0.6457746028900146,0.8799999952316284,9.999999747378752e-05
9.104439232032746e-05,1.0,0.6456145644187927,0.8799999952316284,9.999999747378752e-05
4.821638503926806e-05,1.0,0.6459090709686279,0.8799999952316284,9.999999747378752e-05
5.181492451811209e-05,1.0,0.6463239192962646,0.8799999952316284,9.999999747378752e-05
0.0005300423945300281,1.0,0.6491276621818542,0.8700000047683716,9.999999747378752e-05
9.50925168581307e-05,1.0,0.6518821716308594,0.8700000047683716,9.999999747378752e-05
0.00015952558896970004,1.0,0.6525446176528931,0.8700000047683716,9.999999747378752e-05
4.305132097215392e-05,1.0,0.6520891785621643,0.8700000047683716,9.999999747378752e-05
1.689365853962954e-05,1.0,0.6503421068191528,0.8700000047683716,9.999999747378752e-05
4.447341780178249e-05,1.0,0.6493915319442749,0.8700000047683716,9.999999747378752e-05
3.109770477749407e-05,1.0,0.647643506526947,0.8700000047683716,9.999999747378752e-05
4.3716441723518074e-05,1.0,0.6463479399681091,0.8700000047683716,9.999999747378752e-05
0.0001691344368737191,1.0,0.6462263464927673,0.8700000047683716,9.999999747378752e-05
5.808442801935598e-05,1.0,0.6457668542861938,0.8700000047683716,9.999999747378752e-05
0.0001389484532410279,1.0,0.6456723213195801,0.8700000047683716,9.999999747378752e-05
2.1321888198144734e-05,1.0,0.64576256275177,0.8700000047683716,9.999999747378752e-05
4.560783418128267e-05,1.0,0.6454089879989624,0.8700000047683716,9.999999747378752e-05
0.0001470282004447654,1.0,0.6457536220550537,0.8700000047683716,9.999999747378752e-05
6.535256397910416e-05,1.0,0.6466608643531799,0.8700000047683716,9.999999747378752e-05
8.989788329927251e-05,1.0,0.6477295160293579,0.8700000047683716,9.999999747378752e-05
7.629334140801802e-05,1.0,0.6478546261787415,0.8700000047683716,9.999999747378752e-05
8.106451423373073e-05,1.0,0.6479083895683289,0.8700000047683716,9.999999747378752e-05
3.419307904550806e-05,1.0,0.6482457518577576,0.8700000047683716,9.999999747378752e-05
1.4535577065544203e-05,1.0,0.6479448676109314,0.8700000047683716,9.999999747378752e-05
3.526263026287779e-05,1.0,0.6476256847381592,0.8700000047683716,9.999999747378752e-05
6.227678386494517e-05,1.0,0.6476186513900757,0.8700000047683716,9.999999747378752e-05
2.281914021295961e-05,1.0,0.6472117900848389,0.8700000047683716,9.999999747378752e-05
3.550424662535079e-05,1.0,0.6472755670547485,0.8700000047683716,9.999999747378752e-05
0.000123706238809973,1.0,0.6479966640472412,0.8700000047683716,9.999999747378752e-05
3.283657133579254e-05,1.0,0.6499459743499756,0.8700000047683716,9.999999747378752e-05
8.310766861541197e-05,1.0,0.6505544185638428,0.8700000047683716,9.999999747378752e-05
3.5145829315297306e-05,1.0,0.6504301428794861,0.8700000047683716,9.999999747378752e-05
6.323064735624939e-05,1.0,0.6505009531974792,0.8700000047683716,9.999999747378752e-05
3.4494347346480936e-05,1.0,0.6475178599357605,0.8700000047683716,9.999999747378752e-05
0.00022369809448719025,1.0,0.6481114029884338,0.8700000047683716,9.999999747378752e-05
4.7655863454565406e-05,1.0,0.6490470170974731,0.8700000047683716,9.999999747378752e-05
2.313451659574639e-05,1.0,0.6491930484771729,0.8700000047683716,9.999999747378752e-05
2.317897269676905e-05,1.0,0.649069607257843,0.8700000047683716,9.999999747378752e-05
5.9737063565989956e-05,1.0,0.6497819423675537,0.8700000047683716,9.999999747378752e-05
6.193005538079888e-05,1.0,0.6501140594482422,0.8700000047683716,9.999999747378752e-05
6.86181228957139e-05,1.0,0.6503639817237854,0.8700000047683716,9.999999747378752e-05
0.0002663794148247689,1.0,0.6516417860984802,0.8700000047683716,9.999999747378752e-05
0.00022229188471101224,1.0,0.6575846076011658,0.8700000047683716,9.999999747378752e-05
3.528259912854992e-05,1.0,0.6598948836326599,0.8799999952316284,9.999999747378752e-05
1.0251699677610304e-05,1.0,0.6602230668067932,0.8799999952316284,9.999999747378752e-05
4.598604209604673e-05,1.0,0.6606042385101318,0.8799999952316284,9.999999747378752e-05
1.5121131582418457e-05,1.0,0.6605804562568665,0.8799999952316284,9.999999747378752e-05
1.3172279977879953e-05,1.0,0.6603035926818848,0.8700000047683716,9.999999747378752e-05
2.2554086172021925e-05,1.0,0.6600562930107117,0.8700000047683716,9.999999747378752e-05
0.00012726910063065588,1.0,0.6604524254798889,0.8799999952316284,9.999999747378752e-05
0.00014968527830205858,1.0,0.660849392414093,0.8799999952316284,9.999999747378752e-05
0.00012129981769248843,1.0,0.6615555286407471,0.8700000047683716,9.999999747378752e-05
0.00011175780673511326,1.0,0.6620625853538513,0.8700000047683716,9.999999747378752e-05
6.039387153577991e-05,1.0,0.6616091132164001,0.8700000047683716,9.999999747378752e-05
0.0003026711056008935,1.0,0.6623693108558655,0.8799999952316284,9.999999747378752e-05
2.2467402231995948e-05,1.0,0.6607848405838013,0.8799999952316284,9.999999747378752e-05
4.844279101234861e-05,1.0,0.6597134470939636,0.8799999952316284,9.999999747378752e-05
2.935142401838675e-05,1.0,0.6587762236595154,0.8799999952316284,9.999999747378752e-05
2.757093716354575e-05,1.0,0.6575818061828613,0.8799999952316284,9.999999747378752e-05
0.00012293783947825432,1.0,0.6580930948257446,0.8700000047683716,9.999999747378752e-05
0.0002323789376532659,1.0,0.664044201374054,0.8700000047683716,9.999999747378752e-05
0.00018144139903597534,1.0,0.666496753692627,0.8799999952316284,9.999999747378752e-05
9.12860341486521e-05,1.0,0.6639501452445984,0.8799999952316284,9.999999747378752e-05
4.880736014456488e-05,1.0,0.6630444526672363,0.8799999952316284,9.999999747378752e-05
7.257634570123628e-05,1.0,0.6627463698387146,0.8799999952316284,9.999999747378752e-05
2.562228291935753e-05,1.0,0.6611573100090027,0.8799999952316284,9.999999747378752e-05
2.5343915694975294e-05,1.0,0.6611448526382446,0.8799999952316284,9.999999747378752e-05
4.998152144253254e-05,1.0,0.6601614952087402,0.8799999952316284,9.999999747378752e-05
0.00029733675182797015,1.0,0.6662377715110779,0.8799999952316284,9.999999747378752e-05
3.67847278539557e-05,1.0,0.6791445016860962,0.8799999952316284,9.999999747378752e-05
3.631365325418301e-05,1.0,0.6815842986106873,0.8799999952316284,9.999999747378752e-05
7.214672223199159e-05,1.0,0.6802886128425598,0.8799999952316284,9.999999747378752e-05
3.8731523090973496e-05,1.0,0.6780828833580017,0.8799999952316284,9.999999747378752e-05
4.4877662730868906e-05,1.0,0.6767158508300781,0.8799999952316284,9.999999747378752e-05
2.4885539460228756e-05,1.0,0.6746842861175537,0.8799999952316284,9.999999747378752e-05
2.719055555644445e-05,1.0,0.6726136803627014,0.8799999952316284,9.999999747378752e-05
0.00014620614820159972,1.0,0.6728532314300537,0.8799999952316284,9.999999747378752e-05
6.745660357410088e-05,1.0,0.6743586659431458,0.8799999952316284,9.999999747378752e-05
0.00011436096974648535,1.0,0.6744404435157776,0.8799999952316284,9.999999747378752e-05
1.9359118596185e-05,1.0,0.6730703711509705,0.8799999952316284,9.999999747378752e-05
4.628204260370694e-05,1.0,0.6721460223197937,0.8799999952316284,9.999999747378752e-05
0.00010371056123403832,1.0,0.6713550686836243,0.8799999952316284,9.999999747378752e-05
2.065407534246333e-05,1.0,0.6701343059539795,0.8700000047683716,9.999999747378752e-05
4.575667844619602e-05,1.0,0.6702990531921387,0.8700000047683716,9.999999747378752e-05
1.8107852156390436e-05,1.0,0.6701439023017883,0.8700000047683716,9.999999747378752e-05
3.317238588351756e-05,1.0,0.6699704527854919,0.8700000047683716,9.999999747378752e-05
4.246508615324274e-05,1.0,0.6695821285247803,0.8700000047683716,9.999999747378752e-05
3.947976074414328e-05,1.0,0.6682987809181213,0.8700000047683716,9.999999747378752e-05
0.00014062205445952713,1.0,0.6682774424552917,0.8700000047683716,9.999999747378752e-05
3.7487392546609044e-05,1.0,0.6705532670021057,0.8700000047683716,9.999999747378752e-05
6.290046439971775e-05,1.0,0.671245276927948,0.8700000047683716,9.999999747378752e-05
6.365203444147483e-05,1.0,0.6716033220291138,0.8700000047683716,9.999999747378752e-05
5.0733116950141266e-05,1.0,0.6723768711090088,0.8700000047683716,9.999999747378752e-05
3.16038858727552e-05,1.0,0.6723049879074097,0.8700000047683716,9.999999747378752e-05
2.726355342019815e-05,1.0,0.6716820597648621,0.8700000047683716,9.999999747378752e-05
0.00022293846996035427,1.0,0.6657412052154541,0.8700000047683716,9.999999747378752e-05
0.00022056799207348377,1.0,0.6473900079727173,0.8700000047683716,9.999999747378752e-05
2.6927855287794955e-05,1.0,0.6334263682365417,0.8700000047683716,9.999999747378752e-05
4.131616879021749e-05,1.0,0.6325713396072388,0.8700000047683716,9.999999747378752e-05
5.2354636864038184e-05,1.0,0.6351045966148376,0.8700000047683716,9.999999747378752e-05
0.0001949427096405998,1.0,0.6428391337394714,0.8700000047683716,9.999999747378752e-05
0.00015501801681239158,1.0,0.64765465259552,0.8700000047683716,9.999999747378752e-05
0.0001297504350077361,1.0,0.6508124470710754,0.8700000047683716,9.999999747378752e-05
6.692629540339112e-05,1.0,0.6526347398757935,0.8700000047683716,9.999999747378752e-05
7.095026376191527e-05,1.0,0.6540524959564209,0.8700000047683716,9.999999747378752e-05
3.9266371459234506e-05,1.0,0.6560391187667847,0.8700000047683716,9.999999747378752e-05
3.060555172851309e-05,1.0,0.657380223274231,0.8700000047683716,9.999999747378752e-05
2.1818545064888895e-05,1.0,0.658356785774231,0.8700000047683716,9.999999747378752e-05
0.00023033145407680422,1.0,0.661513090133667,0.8700000047683716,9.999999747378752e-05
2.663979284989182e-05,1.0,0.6634641289710999,0.8700000047683716,9.999999747378752e-05
4.782712130690925e-05,1.0,0.6649736762046814,0.8700000047683716,9.999999747378752e-05
1.3134116670698859e-05,1.0,0.6659063100814819,0.8700000047683716,9.999999747378752e-05
3.33858588419389e-05,1.0,0.6671000719070435,0.8700000047683716,9.999999747378752e-05
2.8792421289836057e-05,1.0,0.6693049669265747,0.8700000047683716,9.999999747378752e-05
4.1501658415654674e-05,1.0,0.6711381673812866,0.8700000047683716,9.999999747378752e-05
1.2116061952838209e-05,1.0,0.671664297580719,0.8700000047683716,9.999999747378752e-05
4.407996675581671e-05,1.0,0.6720038652420044,0.8700000047683716,9.999999747378752e-05
0.00010472477151779458,1.0,0.6735031008720398,0.8700000047683716,9.999999747378752e-05
1.2247207450855058e-05,1.0,0.6738430261611938,0.8700000047683716,9.999999747378752e-05
9.492350727668963e-06,1.0,0.6732621788978577,0.8700000047683716,9.999999747378752e-05
5.692840204574168e-05,1.0,0.6745546460151672,0.8700000047683716,9.999999747378752e-05
1.4859559087199159e-05,1.0,0.6750425696372986,0.8700000047683716,9.999999747378752e-05
1.987554060178809e-05,1.0,0.6753351092338562,0.8700000047683716,9.999999747378752e-05
4.1923722164938226e-05,1.0,0.6765671372413635,0.8700000047683716,9.999999747378752e-05
2.1797399313072674e-05,1.0,0.6775115728378296,0.8700000047683716,9.999999747378752e-05
7.345821359194815e-05,1.0,0.6749772429466248,0.8700000047683716,9.999999747378752e-05
0.00011709080717992038,1.0,0.6731877326965332,0.8700000047683716,9.999999747378752e-05
5.618393333861604e-05,1.0,0.6739495992660522,0.8700000047683716,9.999999747378752e-05
2.865957321773749e-05,1.0,0.674437403678894,0.8700000047683716,9.999999747378752e-05
4.01320394303184e-05,1.0,0.675967276096344,0.8700000047683716,9.999999747378752e-05
0.00014185585314407945,1.0,0.6791362166404724,0.8700000047683716,9.999999747378752e-05
3.786638626479544e-05,1.0,0.6835123300552368,0.8700000047683716,9.999999747378752e-05
3.2436830224469304e-05,1.0,0.6846311092376709,0.8700000047683716,9.999999747378752e-05
0.00022558195632882416,1.0,0.6885995268821716,0.8700000047683716,9.999999747378752e-05
0.00015304629050660878,1.0,0.6946824789047241,0.8799999952316284,9.999999747378752e-05
0.00018596484733279794,1.0,0.7065181136131287,0.8799999952316284,9.999999747378752e-05
0.00019963526574429125,1.0,0.7131196856498718,0.8799999952316284,9.999999747378752e-05
0.00044267287012189627,1.0,0.6566669344902039,0.8700000047683716,9.999999747378752e-05
0.00022362224990502,1.0,0.6327705979347229,0.8700000047683716,9.999999747378752e-05
3.413048034417443e-05,1.0,0.6255443692207336,0.8700000047683716,9.999999747378752e-05
1.4100884072831832e-05,1.0,0.6251000761985779,0.8700000047683716,9.999999747378752e-05
8.035400969674811e-05,1.0,0.6271817684173584,0.8700000047683716,9.999999747378752e-05
0.00010703080624807626,1.0,0.6345741152763367,0.8700000047683716,9.999999747378752e-05
3.1162824598141015e-05,1.0,0.640155017375946,0.8700000047683716,9.999999747378752e-05
4.0938841266324744e-05,1.0,0.6434528827667236,0.8700000047683716,9.999999747378752e-05
3.509486487018876e-05,1.0,0.6461412310600281,0.8700000047683716,9.999999747378752e-05
7.043310324661434e-05,1.0,0.6493151187896729,0.8700000047683716,9.999999747378752e-05
5.328914994606748e-05,1.0,0.6517629027366638,0.8700000047683716,9.999999747378752e-05
2.4894992748158984e-05,1.0,0.6537603735923767,0.8700000047683716,9.999999747378752e-05
0.0002093912335112691,1.0,0.6596077084541321,0.8700000047683716,9.999999747378752e-05
6.319989915937185e-05,1.0,0.6652063131332397,0.8700000047683716,9.999999747378752e-05
2.2420661480282433e-05,1.0,0.6660076975822449,0.8700000047683716,9.999999747378752e-05
1.641213020775467e-05,1.0,0.6650347709655762,0.8700000047683716,9.999999747378752e-05
2.5434694180148654e-05,1.0,0.6645016670227051,0.8700000047683716,9.999999747378752e-05
4.4704414904117584e-05,1.0,0.6648710370063782,0.8700000047683716,9.999999747378752e-05
5.725917435484007e-05,1.0,0.6637876033782959,0.8600000143051147,9.999999747378752e-05
7.632069173268974e-05,1.0,0.6677068471908569,0.8600000143051147,9.999999747378752e-05
5.850313391420059e-05,1.0,0.6687381267547607,0.8600000143051147,9.999999747378752e-05
2.5468081730650738e-05,1.0,0.6692981719970703,0.8700000047683716,9.999999747378752e-05
3.7947524106130004e-05,1.0,0.6693148016929626,0.8700000047683716,9.999999747378752e-05
2.272692472615745e-05,1.0,0.6691834926605225,0.8700000047683716,9.999999747378752e-05
2.2511678253067657e-05,1.0,0.66804039478302,0.8700000047683716,9.999999747378752e-05
2.9663899113074876e-05,1.0,0.6666668653488159,0.8700000047683716,9.999999747378752e-05
8.60083400766598e-06,1.0,0.6656578779220581,0.8700000047683716,9.999999747378752e-05
0.00012286122364457697,1.0,0.6665955185890198,0.8700000047683716,9.999999747378752e-05
1.377996159135364e-05,1.0,0.6681782603263855,0.8700000047683716,9.999999747378752e-05
0.00010422607010696083,1.0,0.6685899496078491,0.8700000047683716,9.999999747378752e-05
5.560940189752728e-05,1.0,0.6682739853858948,0.8700000047683716,9.999999747378752e-05
1.3567674614023417e-05,1.0,0.6675184369087219,0.8700000047683716,9.999999747378752e-05
8.838048961479217e-05,1.0,0.6687976717948914,0.8700000047683716,9.999999747378752e-05
4.7102992539294064e-05,1.0,0.6695203185081482,0.8700000047683716,9.999999747378752e-05
1.61307179951109e-05,1.0,0.6705490350723267,0.8700000047683716,9.999999747378752e-05
1.4844504221400712e-05,1.0,0.6699472665786743,0.8700000047683716,9.999999747378752e-05
2.2776426703785546e-05,1.0,0.6696893572807312,0.8700000047683716,9.999999747378752e-05
2.2504140360979363e-05,1.0,0.6702743768692017,0.8700000047683716,9.999999747378752e-05
3.2764513889560476e-05,1.0,0.6713172793388367,0.8700000047683716,9.999999747378752e-05
2.2553063899977133e-05,1.0,0.672116756439209,0.8700000047683716,9.999999747378752e-05
3.244199251639657e-05,1.0,0.6721180081367493,0.8700000047683716,9.999999747378752e-05
3.512562398100272e-05,1.0,0.6728558540344238,0.8700000047683716,9.999999747378752e-05
1.4532178283843677e-05,1.0,0.673000156879425,0.8700000047683716,9.999999747378752e-05
5.9471312852110714e-05,1.0,0.6709861159324646,0.8700000047683716,9.999999747378752e-05
5.7004635891644284e-05,1.0,0.671253502368927,0.8700000047683716,9.999999747378752e-05
1.7420506992493756e-05,1.0,0.6722108721733093,0.8700000047683716,9.999999747378752e-05
4.0560680645285174e-05,1.0,0.6739439368247986,0.8700000047683716,9.999999747378752e-05
0.0001161659529316239,1.0,0.6758758425712585,0.8700000047683716,9.999999747378752e-05
1.1222009561606683e-05,1.0,0.6768308281898499,0.8700000047683716,9.999999747378752e-05
6.078395472286502e-06,1.0,0.6767024397850037,0.8700000047683716,9.999999747378752e-05
1.5968478692229837e-05,1.0,0.6775466799736023,0.8700000047683716,9.999999747378752e-05
2.8715050575556234e-05,1.0,0.6790175437927246,0.8700000047683716,9.999999747378752e-05
2.9546594305429608e-05,1.0,0.6806480288505554,0.8700000047683716,9.999999747378752e-05
2.3625161702511832e-05,1.0,0.6807988882064819,0.8700000047683716,9.999999747378752e-05
2.985468199767638e-05,1.0,0.6817968487739563,0.8700000047683716,9.999999747378752e-05
9.39703568292316e-06,1.0,0.6834515929222107,0.8700000047683716,9.999999747378752e-05
1.251896537723951e-05,1.0,0.6839520931243896,0.8700000047683716,9.999999747378752e-05
5.7624642067821696e-05,1.0,0.6865202188491821,0.8700000047683716,9.999999747378752e-05
1.4728697351529263e-05,1.0,0.6884239315986633,0.8700000047683716,9.999999747378752e-05
8.08220556791639e-06,1.0,0.688689112663269,0.8700000047683716,9.999999747378752e-05
5.902141856495291e-05,1.0,0.6897639632225037,0.8700000047683716,9.999999747378752e-05
2.1655861928593367e-05,1.0,0.6904743909835815,0.8700000047683716,9.999999747378752e-05
1.4152750736684538e-05,1.0,0.6910694241523743,0.8700000047683716,9.999999747378752e-05
3.811166970990598e-05,1.0,0.6924373507499695,0.8700000047683716,9.999999747378752e-05
1.1899882338184398e-05,1.0,0.6916912198066711,0.8700000047683716,9.999999747378752e-05
1.106429408537224e-05,1.0,0.6912341117858887,0.8700000047683716,9.999999747378752e-05
8.579157292842865e-05,1.0,0.6942781209945679,0.8700000047683716,9.999999747378752e-05
3.890577136189677e-05,1.0,0.6955145001411438,0.8700000047683716,9.999999747378752e-05
1.9867740775225684e-05,1.0,0.69542396068573,0.8700000047683716,9.999999747378752e-05
1.4731229384778999e-05,1.0,0.6946962475776672,0.8700000047683716,9.999999747378752e-05
1.662408067204524e-05,1.0,0.6946048736572266,0.8700000047683716,9.999999747378752e-05
0.0002116580435540527,1.0,0.6930515170097351,0.8700000047683716,9.999999747378752e-05
9.12089308258146e-05,1.0,0.6861193776130676,0.8700000047683716,9.999999747378752e-05
8.995219104690477e-05,1.0,0.6831607222557068,0.8700000047683716,9.999999747378752e-05
2.217821020167321e-05,1.0,0.6824392676353455,0.8700000047683716,9.999999747378752e-05
2.4283934180857614e-05,1.0,0.6835888028144836,0.8700000047683716,9.999999747378752e-05
2.489727921783924e-05,1.0,0.6854751706123352,0.8700000047683716,9.999999747378752e-05
2.163124918297399e-05,1.0,0.6864920258522034,0.8700000047683716,9.999999747378752e-05
5.7432116591371596e-05,1.0,0.6885345578193665,0.8700000047683716,9.999999747378752e-05
8.668660484545399e-06,1.0,0.6894311308860779,0.8700000047683716,9.999999747378752e-05
3.1544350349577144e-05,1.0,0.6904944777488708,0.8700000047683716,9.999999747378752e-05
0.00011676795838866383,1.0,0.6823556423187256,0.8700000047683716,9.999999747378752e-05
0.00010369339725002646,1.0,0.672808051109314,0.8700000047683716,9.999999747378752e-05
9.112121915677562e-06,1.0,0.6594775915145874,0.8700000047683716,9.999999747378752e-05
3.643828313215636e-05,1.0,0.6598595380783081,0.8700000047683716,9.999999747378752e-05
1.6148562281159684e-05,1.0,0.6618716716766357,0.8700000047683716,9.999999747378752e-05
2.009008858294692e-05,1.0,0.6655290126800537,0.8700000047683716,9.999999747378752e-05
2.907491216319613e-05,1.0,0.6689894199371338,0.8700000047683716,9.999999747378752e-05
4.399124009069055e-05,1.0,0.6728139519691467,0.8700000047683716,9.999999747378752e-05
0.00011673748667817563,1.0,0.6790525913238525,0.8600000143051147,9.999999747378752e-05
1.6657540982123464e-05,1.0,0.6819532513618469,0.8600000143051147,9.999999747378752e-05
1.5113640074559953e-05,1.0,0.6839261651039124,0.8600000143051147,9.999999747378752e-05
2.4561584723414853e-05,1.0,0.685070812702179,0.8600000143051147,9.999999747378752e-05
3.965779615100473e-05,1.0,0.6866828799247742,0.8600000143051147,9.999999747378752e-05
2.284123547724448e-05,1.0,0.6898823380470276,0.8600000143051147,9.999999747378752e-05
3.6405563150765374e-05,1.0,0.6920359134674072,0.8600000143051147,9.999999747378752e-05
0.00013027031673118472,1.0,0.7179649472236633,0.8600000143051147,9.999999747378752e-05
3.445163747528568e-05,1.0,0.7236148118972778,0.8700000047683716,9.999999747378752e-05
1.8275117326993495e-05,1.0,0.7240699529647827,0.8700000047683716,9.999999747378752e-05
5.477604645420797e-06,1.0,0.7220532298088074,0.8600000143051147,9.999999747378752e-05
1.2267362762941048e-05,1.0,0.719310462474823,0.8600000143051147,9.999999747378752e-05
3.184549859724939e-05,1.0,0.7173348069190979,0.8600000143051147,9.999999747378752e-05
5.186701673665084e-05,1.0,0.7179562449455261,0.8600000143051147,9.999999747378752e-05
2.6518822778598405e-05,1.0,0.716237485408783,0.8600000143051147,9.999999747378752e-05
0.00010098464554175735,1.0,0.7114522457122803,0.8700000047683716,9.999999747378752e-05
1.171998792415252e-05,1.0,0.7070176005363464,0.8700000047683716,9.999999747378752e-05
3.288621883257292e-05,1.0,0.7056726217269897,0.8700000047683716,9.999999747378752e-05
0.00011583577725104988,1.0,0.7185001373291016,0.8600000143051147,9.999999747378752e-05
1.786699067451991e-05,1.0,0.7233297824859619,0.8600000143051147,9.999999747378752e-05
5.392951607063878e-06,1.0,0.7241283655166626,0.8600000143051147,9.999999747378752e-05
5.577729098149575e-06,1.0,0.7233567237854004,0.8600000143051147,9.999999747378752e-05
0.0016550538130104542,1.0,0.6030480861663818,0.8299999833106995,9.999999747378752e-05
6.79835065966472e-05,1.0,0.615513265132904,0.8299999833106995,9.999999747378752e-05
0.0010739314602687955,1.0,0.5772154927253723,0.8299999833106995,9.999999747378752e-05
0.0003234146861359477,1.0,0.5727615356445312,0.8399999737739563,9.999999747378752e-05
0.0012246179394423962,1.0,0.6893656849861145,0.8600000143051147,9.999999747378752e-05
0.0022106203250586987,1.0,0.969992458820343,0.8799999952316284,9.999999747378752e-05
0.00035461876541376114,1.0,1.0340977907180786,0.8700000047683716,9.999999747378752e-05
0.0013309897622093558,1.0,0.6980088949203491,0.8799999952316284,9.999999747378752e-05
0.0006576773012056947,1.0,0.6282121539115906,0.8700000047683716,9.999999747378752e-05
0.0005163419991731644,1.0,0.6552577018737793,0.8700000047683716,9.999999747378752e-05
3.967297379858792e-05,1.0,0.6984732151031494,0.8700000047683716,9.999999747378752e-05
0.0001957703207153827,1.0,0.7340958118438721,0.8700000047683716,9.999999747378752e-05
8.18582993815653e-05,1.0,0.7523115277290344,0.8700000047683716,9.999999747378752e-05
3.3821252145571634e-05,1.0,0.7589637637138367,0.8700000047683716,9.999999747378752e-05
0.0022030400577932596,1.0,0.9020150899887085,0.8799999952316284,9.999999747378752e-05
0.00027172541012987494,1.0,1.061851143836975,0.8700000047683716,9.999999747378752e-05
0.0005818793433718383,1.0,1.0673731565475464,0.8600000143051147,9.999999747378752e-05
0.00019489605620037764,1.0,1.0186032056808472,0.8799999952316284,9.999999747378752e-05
0.00017227207717951387,1.0,0.9785678386688232,0.8799999952316284,9.999999747378752e-05
0.0004835820582229644,1.0,0.941730260848999,0.8799999952316284,9.999999747378752e-05
0.0010339767904952168,1.0,0.9068961143493652,0.8700000047683716,9.999999747378752e-05
0.00013720011338591576,1.0,0.881886899471283,0.8500000238418579,9.999999747378752e-05
0.00014739557809662074,1.0,0.8615897297859192,0.8399999737739563,9.999999747378752e-05
4.985254417988472e-05,1.0,0.8437606692314148,0.8399999737739563,9.999999747378752e-05
0.0007108221761882305,1.0,0.8166807293891907,0.8399999737739563,9.999999747378752e-05
0.0012101077008992434,1.0,0.6247884631156921,0.8799999952316284,9.999999747378752e-05
0.0007121977396309376,1.0,0.6338853240013123,0.8799999952316284,9.999999747378752e-05
0.0254229623824358,0.9900000095367432,0.7383663654327393,0.8600000143051147,9.999999747378752e-05
0.0003208681591786444,1.0,1.063281774520874,0.8399999737739563,9.999999747378752e-05
0.021708955988287926,0.9900000095367432,0.8621624708175659,0.8500000238418579,9.999999747378752e-05
0.0007548572029918432,1.0,0.7053919434547424,0.8600000143051147,9.999999747378752e-05
0.0007091403240337968,1.0,0.6508957147598267,0.8799999952316284,9.999999747378752e-05
0.000918770267162472,1.0,0.626503050327301,0.8899999856948853,9.999999747378752e-05
0.0008736076415516436,1.0,0.6086224913597107,0.8899999856948853,9.999999747378752e-05
0.02729058265686035,0.9800000190734863,0.5801413655281067,0.8899999856948853,9.999999747378752e-05
0.001432493794709444,1.0,0.5850309133529663,0.8999999761581421,9.999999747378752e-05
0.004391903057694435,1.0,0.6113733649253845,0.8700000047683716,9.999999747378752e-05
0.001336417393758893,1.0,0.6228912472724915,0.8799999952316284,9.999999747378752e-05
0.005350949242711067,1.0,0.5927239656448364,0.8899999856948853,9.999999747378752e-05
0.0009660430368967354,1.0,0.6007369756698608,0.8700000047683716,9.999999747378752e-05
0.001059439848177135,1.0,0.5880007743835449,0.8600000143051147,9.999999747378752e-05
0.0016190202441066504,1.0,0.5883402824401855,0.8600000143051147,9.999999747378752e-05
0.0010933055309578776,1.0,0.5792716145515442,0.8600000143051147,9.999999747378752e-05
0.00034973080619238317,1.0,0.5737295150756836,0.8600000143051147,9.999999747378752e-05
0.0006264140247367322,1.0,0.5644562840461731,0.8700000047683716,9.999999747378752e-05
0.0004248493642080575,1.0,0.555693507194519,0.8700000047683716,9.999999747378752e-05
0.00014336108870338649,1.0,0.5521786212921143,0.8700000047683716,9.999999747378752e-05
0.00046668844879604876,1.0,0.5543556213378906,0.8700000047683716,9.999999747378752e-05
0.0002600911248009652,1.0,0.5546828508377075,0.8799999952316284,9.999999747378752e-05
0.0002891558106057346,1.0,0.5509927868843079,0.8799999952316284,9.999999747378752e-05
0.0006883812020532787,1.0,0.5369076728820801,0.8700000047683716,9.999999747378752e-05
0.000280161650152877,1.0,0.5325412750244141,0.8700000047683716,9.999999747378752e-05
0.00021990734967403114,1.0,0.5329099297523499,0.8700000047683716,9.999999747378752e-05
0.00023711637186352164,1.0,0.533587634563446,0.8700000047683716,9.999999747378752e-05
0.0002418829099042341,1.0,0.5340675115585327,0.8700000047683716,9.999999747378752e-05
0.0003106007643509656,1.0,0.534676730632782,0.8700000047683716,9.999999747378752e-05
0.00011016866483259946,1.0,0.5359554886817932,0.8700000047683716,9.999999747378752e-05
0.0004517414781730622,1.0,0.5386772155761719,0.8799999952316284,9.999999747378752e-05
0.00024257726909127086,1.0,0.5404873490333557,0.8799999952316284,9.999999747378752e-05
0.00025213960907422006,1.0,0.5416311025619507,0.8799999952316284,9.999999747378752e-05
0.00032968909363262355,1.0,0.5400815606117249,0.8799999952316284,9.999999747378752e-05
0.0012131573166698217,1.0,0.5395203232765198,0.8799999952316284,9.999999747378752e-05
0.0003027127240784466,1.0,0.5409044027328491,0.8799999952316284,9.999999747378752e-05
0.00027229698025621474,1.0,0.5437256097793579,0.8799999952316284,9.999999747378752e-05
9.4532901130151e-05,1.0,0.5465337634086609,0.8799999952316284,9.999999747378752e-05
0.0002588186471257359,1.0,0.547997236251831,0.8799999952316284,9.999999747378752e-05
0.00026482532848604023,1.0,0.5499758720397949,0.8799999952316284,9.999999747378752e-05
0.00019681891717482358,1.0,0.5538703799247742,0.8899999856948853,9.999999747378752e-05
0.00020630465587601066,1.0,0.5579200983047485,0.8899999856948853,9.999999747378752e-05
0.0002723188081290573,1.0,0.5604073405265808,0.8899999856948853,9.999999747378752e-05
0.00032331107649952173,1.0,0.562540590763092,0.8899999856948853,9.999999747378752e-05
5.374426473281346e-05,1.0,0.5634426474571228,0.8899999856948853,9.999999747378752e-05
0.0002611874369904399,1.0,0.5641158819198608,0.8899999856948853,9.999999747378752e-05
0.0001027165271807462,1.0,0.5643947124481201,0.8899999856948853,9.999999747378752e-05
0.0002185715566156432,1.0,0.5655573010444641,0.8899999856948853,9.999999747378752e-05
0.00040259279194287956,1.0,0.5685531497001648,0.8899999856948853,9.999999747378752e-05
0.0005884413840249181,1.0,0.5538401007652283,0.8899999856948853,9.999999747378752e-05
0.0001679841079749167,1.0,0.5504908561706543,0.8799999952316284,9.999999747378752e-05
7.8305893111974e-05,1.0,0.5513115525245667,0.8799999952316284,9.999999747378752e-05
0.00025716927484609187,1.0,0.5532240271568298,0.8899999856948853,9.999999747378752e-05
0.000299552280921489,1.0,0.5576457977294922,0.8899999856948853,9.999999747378752e-05
0.0004560227971524,1.0,0.5648990273475647,0.8899999856948853,9.999999747378752e-05
9.05307024368085e-05,1.0,0.5701097249984741,0.8899999856948853,9.999999747378752e-05
9.027105988934636e-05,1.0,0.5727716088294983,0.8899999856948853,9.999999747378752e-05
0.00028352192020975053,1.0,0.5750764608383179,0.8899999856948853,9.999999747378752e-05
0.00019997816707473248,1.0,0.575049102306366,0.8899999856948853,9.999999747378752e-05
7.237494719447568e-05,1.0,0.575231671333313,0.8899999856948853,9.999999747378752e-05
0.0004279359127394855,1.0,0.5699286460876465,0.8899999856948853,9.999999747378752e-05
0.0002785935939755291,1.0,0.5691664218902588,0.8899999856948853,9.999999747378752e-05
9.898794087348506e-05,1.0,0.5691644549369812,0.8899999856948853,9.999999747378752e-05
0.00029280417948029935,1.0,0.5702501535415649,0.8899999856948853,9.999999747378752e-05
3.657289926195517e-05,1.0,0.571061909198761,0.8899999856948853,9.999999747378752e-05
0.0001332926331087947,1.0,0.5721554160118103,0.8899999856948853,9.999999747378752e-05
0.00012131177209084854,1.0,0.5733035206794739,0.8899999856948853,9.999999747378752e-05
9.157179738394916e-05,1.0,0.5747913122177124,0.8899999856948853,9.999999747378752e-05
9.247798152500764e-05,1.0,0.5750293135643005,0.8899999856948853,9.999999747378752e-05
0.00022254418581724167,1.0,0.5747582912445068,0.8899999856948853,9.999999747378752e-05
0.00010298845154466107,1.0,0.5725001692771912,0.8899999856948853,9.999999747378752e-05
0.00015166797675192356,1.0,0.5727658271789551,0.8899999856948853,9.999999747378752e-05
0.0005516447708941996,1.0,0.5751771330833435,0.8899999856948853,9.999999747378752e-05
6.791399937355891e-05,1.0,0.5811622142791748,0.8899999856948853,9.999999747378752e-05
0.0004844411159865558,1.0,0.5840715169906616,0.8899999856948853,9.999999747378752e-05
0.00034276777296327055,1.0,0.5828230381011963,0.8899999856948853,9.999999747378752e-05
8.428907312918454e-05,1.0,0.5833870768547058,0.8899999856948853,9.999999747378752e-05
0.00011074022040702403,1.0,0.5833127498626709,0.8899999856948853,9.999999747378752e-05
8.684883505338803e-05,1.0,0.5826490521430969,0.8899999856948853,9.999999747378752e-05
4.6231187297962606e-05,1.0,0.5825281143188477,0.8899999856948853,9.999999747378752e-05
6.939585000509396e-05,1.0,0.582848310470581,0.8899999856948853,9.999999747378752e-05
0.00013911788119003177,1.0,0.5847732424736023,0.8899999856948853,9.999999747378752e-05
0.00011350806016707793,1.0,0.5872859954833984,0.8899999856948853,9.999999747378752e-05
8.32831792649813e-05,1.0,0.587397575378418,0.8899999856948853,9.999999747378752e-05
0.00019006380171049386,1.0,0.5840961337089539,0.8899999856948853,9.999999747378752e-05
4.082018494955264e-05,1.0,0.5803964138031006,0.8899999856948853,9.999999747378752e-05
4.575149068841711e-05,1.0,0.5800795555114746,0.8899999856948853,9.999999747378752e-05
0.00010062450746772811,1.0,0.5819286108016968,0.8899999856948853,9.999999747378752e-05
3.240432852180675e-05,1.0,0.5833392143249512,0.8899999856948853,9.999999747378752e-05
0.0001374733546981588,1.0,0.5857120752334595,0.8899999856948853,9.999999747378752e-05
7.519196515204385e-05,1.0,0.5881630182266235,0.8899999856948853,9.999999747378752e-05
0.0006256611668504775,1.0,0.5854921340942383,0.8899999856948853,9.999999747378752e-05
0.0001943903771461919,1.0,0.5827484726905823,0.8899999856948853,9.999999747378752e-05
5.576287367148325e-05,1.0,0.5812304615974426,0.8899999856948853,9.999999747378752e-05
5.6685603340156376e-05,1.0,0.5813190937042236,0.8899999856948853,9.999999747378752e-05
0.0009022736339829862,1.0,0.6294376254081726,0.8899999856948853,9.999999747378752e-05
0.00011882065155077726,1.0,0.654228150844574,0.9100000262260437,9.999999747378752e-05
6.067628419259563e-05,1.0,0.6562535762786865,0.9100000262260437,9.999999747378752e-05
3.086310607613996e-05,1.0,0.6532976031303406,0.9100000262260437,9.999999747378752e-05
3.490820017759688e-05,1.0,0.6499456763267517,0.9100000262260437,9.999999747378752e-05
0.00022534170420840383,1.0,0.6464318633079529,0.9100000262260437,9.999999747378752e-05
6.992467388045043e-05,1.0,0.6432492136955261,0.9100000262260437,9.999999747378752e-05
8.565949974581599e-05,1.0,0.6383248567581177,0.8999999761581421,9.999999747378752e-05
0.0003360215632710606,1.0,0.6287989020347595,0.8999999761581421,9.999999747378752e-05
7.46283185435459e-05,1.0,0.624855101108551,0.8999999761581421,9.999999747378752e-05
0.00014142990403342992,1.0,0.6210362911224365,0.8999999761581421,9.999999747378752e-05
7.281064608832821e-05,1.0,0.618900716304779,0.8999999761581421,9.999999747378752e-05
7.611844193888828e-05,1.0,0.6172250509262085,0.8999999761581421,9.999999747378752e-05
9.430289355805144e-05,1.0,0.6168025732040405,0.8899999856948853,9.999999747378752e-05
0.00010624171409290284,1.0,0.6166261434555054,0.8899999856948853,9.999999747378752e-05
0.00010205474973190576,1.0,0.6175128817558289,0.8899999856948853,9.999999747378752e-05
9.401577699463814e-05,1.0,0.6174628734588623,0.8899999856948853,9.999999747378752e-05
4.1433744627283886e-05,1.0,0.6170862317085266,0.8899999856948853,9.999999747378752e-05
1.8245076716993935e-05,1.0,0.6168214082717896,0.8899999856948853,9.999999747378752e-05
5.679958485416137e-05,1.0,0.6167349219322205,0.8899999856948853,9.999999747378752e-05
0.00038117545773275197,1.0,0.600281298160553,0.8899999856948853,9.999999747378752e-05
3.3681513741612434e-05,1.0,0.5867639183998108,0.8899999856948853,9.999999747378752e-05
2.992371082655154e-05,1.0,0.5834959149360657,0.8899999856948853,9.999999747378752e-05
6.069931623642333e-05,1.0,0.5837702751159668,0.8899999856948853,9.999999747378752e-05
6.537304579978809e-05,1.0,0.5847906470298767,0.8899999856948853,9.999999747378752e-05
0.0001698578562354669,1.0,0.5881208777427673,0.8899999856948853,9.999999747378752e-05
5.6190885516116396e-05,1.0,0.591172456741333,0.8899999856948853,9.999999747378752e-05
0.0003368360048625618,1.0,0.5942537784576416,0.8899999856948853,9.999999747378752e-05
2.754498018475715e-05,1.0,0.5957182049751282,0.8899999856948853,9.999999747378752e-05
3.143416324746795e-05,1.0,0.5968714356422424,0.8899999856948853,9.999999747378752e-05
3.433665551710874e-05,1.0,0.597733199596405,0.8899999856948853,9.999999747378752e-05
8.571852958993986e-05,1.0,0.5997437834739685,0.8899999856948853,9.999999747378752e-05
4.0143440855899826e-05,1.0,0.6028810739517212,0.8899999856948853,9.999999747378752e-05
3.419334097998217e-05,1.0,0.6047257781028748,0.8899999856948853,9.999999747378752e-05
0.00011974600056419149,1.0,0.6067690253257751,0.8899999856948853,9.999999747378752e-05
2.4126524294842966e-05,1.0,0.6078581213951111,0.8899999856948853,9.999999747378752e-05
2.0119512555538677e-05,1.0,0.6080772876739502,0.8899999856948853,9.999999747378752e-05
9.158871398540214e-05,1.0,0.6105854511260986,0.8899999856948853,9.999999747378752e-05
0.00015214433369692415,1.0,0.6121186017990112,0.8899999856948853,9.999999747378752e-05
4.1734987462405115e-05,1.0,0.6144877076148987,0.8899999856948853,9.999999747378752e-05
4.853757855016738e-05,1.0,0.6149972677230835,0.8899999856948853,9.999999747378752e-05
7.716776599409059e-05,1.0,0.6158823370933533,0.8899999856948853,9.999999747378752e-05
1.916609653562773e-05,1.0,0.6174293756484985,0.8899999856948853,9.999999747378752e-05
2.59832067968091e-05,1.0,0.6174820065498352,0.8899999856948853,9.999999747378752e-05
4.54499531770125e-05,1.0,0.6174013614654541,0.8899999856948853,9.999999747378752e-05
0.00013664357538800687,1.0,0.6171553730964661,0.8899999856948853,9.999999747378752e-05
4.59862312709447e-05,1.0,0.6171648502349854,0.8899999856948853,9.999999747378752e-05
6.760547694284469e-05,1.0,0.6181632280349731,0.8899999856948853,9.999999747378752e-05
0.0002073163486784324,1.0,0.6214849352836609,0.8899999856948853,9.999999747378752e-05
3.7169425922911614e-05,1.0,0.6232448816299438,0.8899999856948853,9.999999747378752e-05
0.0001387205848004669,1.0,0.6234129071235657,0.8899999856948853,9.999999747378752e-05
5.434436388895847e-05,1.0,0.6239719390869141,0.8899999856948853,9.999999747378752e-05
1.2469852663343772e-05,1.0,0.6239300966262817,0.8899999856948853,9.999999747378752e-05
0.00014603389718104154,1.0,0.6263390183448792,0.8899999856948853,9.999999747378752e-05
0.000134163856273517,1.0,0.6279924511909485,0.8899999856948853,9.999999747378752e-05
4.076123877894133e-05,1.0,0.6311364769935608,0.8899999856948853,9.999999747378752e-05
4.5186261559138075e-05,1.0,0.6330657601356506,0.8899999856948853,9.999999747378752e-05
0.0009243655949831009,1.0,0.6103206276893616,0.8899999856948853,9.999999747378752e-05
2.7325218979967758e-05,1.0,0.5909171104431152,0.8899999856948853,9.999999747378752e-05
3.8815185689600185e-05,1.0,0.5863235592842102,0.8799999952316284,9.999999747378752e-05
4.4168442400405183e-05,1.0,0.5864319801330566,0.8799999952316284,9.999999747378752e-05
2.175553709093947e-05,1.0,0.5874770879745483,0.8799999952316284,9.999999747378752e-05
6.077257785364054e-05,1.0,0.5899922251701355,0.8799999952316284,9.999999747378752e-05
6.16512552369386e-05,1.0,0.5914711952209473,0.8799999952316284,9.999999747378752e-05
0.00011113555228803307,1.0,0.5926256775856018,0.8799999952316284,9.999999747378752e-05
5.712303027394228e-05,1.0,0.5945541858673096,0.8799999952316284,9.999999747378752e-05
1.1661808457574807e-05,1.0,0.5959137082099915,0.8799999952316284,9.999999747378752e-05
3.5584671422839165e-05,1.0,0.5972214341163635,0.8899999856948853,9.999999747378752e-05
4.7042998630786315e-05,1.0,0.5988567471504211,0.8899999856948853,9.999999747378752e-05
3.0184803108568303e-05,1.0,0.6005184650421143,0.8899999856948853,9.999999747378752e-05
6.105817737989128e-05,1.0,0.6028041243553162,0.8899999856948853,9.999999747378752e-05
7.229211769299582e-05,1.0,0.6064475774765015,0.8899999856948853,9.999999747378752e-05
3.3890613849507645e-05,1.0,0.6081963181495667,0.8899999856948853,9.999999747378752e-05
2.2995325707597658e-05,1.0,0.6092482805252075,0.8899999856948853,9.999999747378752e-05
2.419520569674205e-05,1.0,0.610441267490387,0.8899999856948853,9.999999747378752e-05
4.4462340156314895e-05,1.0,0.612571656703949,0.8899999856948853,9.999999747378752e-05
9.9866563687101e-05,1.0,0.6142986416816711,0.8899999856948853,9.999999747378752e-05
0.00017933148774318397,1.0,0.615979790687561,0.8899999856948853,9.999999747378752e-05
2.566793409641832e-05,1.0,0.6119558215141296,0.8899999856948853,9.999999747378752e-05
1.6441550542367622e-05,1.0,0.6116918325424194,0.8899999856948853,9.999999747378752e-05
7.134032057365403e-05,1.0,0.613822340965271,0.8899999856948853,9.999999747378752e-05
8.789004641585052e-05,1.0,0.6163827776908875,0.8899999856948853,9.999999747378752e-05
2.5330358766950667e-05,1.0,0.617888867855072,0.8899999856948853,9.999999747378752e-05
4.271890429663472e-05,1.0,0.6200541853904724,0.8899999856948853,9.999999747378752e-05
4.339175939094275e-05,1.0,0.6204342842102051,0.8899999856948853,9.999999747378752e-05
1.5307639841921628e-05,1.0,0.6204071044921875,0.8899999856948853,9.999999747378752e-05
0.00034483522176742554,1.0,0.6278486847877502,0.8899999856948853,9.999999747378752e-05
9.13116309675388e-06,1.0,0.6330946087837219,0.8899999856948853,9.999999747378752e-05
2.5073812139453366e-05,1.0,0.6357994079589844,0.8899999856948853,9.999999747378752e-05
6.618625775445253e-05,1.0,0.636817216873169,0.8899999856948853,9.999999747378752e-05
3.21243132930249e-05,1.0,0.6366367340087891,0.8899999856948853,9.999999747378752e-05
0.00014939316315576434,1.0,0.6387836337089539,0.8899999856948853,9.999999747378752e-05
0.00010343189933337271,1.0,0.6374000906944275,0.8899999856948853,9.999999747378752e-05
0.00013285847671795636,1.0,0.6379059553146362,0.8899999856948853,9.999999747378752e-05
0.0001678991538938135,1.0,0.6456925272941589,0.8899999856948853,9.999999747378752e-05
3.684149851324037e-05,1.0,0.6479552984237671,0.8899999856948853,9.999999747378752e-05
4.063278538524173e-05,1.0,0.6491638422012329,0.8899999856948853,9.999999747378752e-05
0.00012727949069812894,1.0,0.6498633623123169,0.8899999856948853,9.999999747378752e-05
8.458414959022775e-05,1.0,0.6474677324295044,0.8899999856948853,9.999999747378752e-05
0.00011571191134862602,1.0,0.6484805941581726,0.8899999856948853,9.999999747378752e-05
1.7568205294082873e-05,1.0,0.647799551486969,0.8899999856948853,9.999999747378752e-05
0.002022308297455311,1.0,0.6263346672058105,0.8999999761581421,9.999999747378752e-05
3.2407093385700136e-05,1.0,0.574495792388916,0.8899999856948853,9.999999747378752e-05
0.0006397015531547368,1.0,0.5810001492500305,0.8899999856948853,9.999999747378752e-05
4.278995038475841e-05,1.0,0.5963388085365295,0.8899999856948853,9.999999747378752e-05
2.131379187630955e-05,1.0,0.6027312278747559,0.8899999856948853,9.999999747378752e-05
5.60520711587742e-05,1.0,0.6067672371864319,0.8899999856948853,9.999999747378752e-05
7.640930562047288e-05,1.0,0.610440731048584,0.8899999856948853,9.999999747378752e-05
3.275114795542322e-05,1.0,0.6121339201927185,0.8899999856948853,9.999999747378752e-05
7.390736573142931e-05,1.0,0.6137340664863586,0.8899999856948853,9.999999747378752e-05
0.0006065847701393068,1.0,0.6306445598602295,0.8899999856948853,9.999999747378752e-05
3.34326432493981e-05,1.0,0.6601994037628174,0.8899999856948853,9.999999747378752e-05
3.4082775528077036e-05,1.0,0.6685982346534729,0.8899999856948853,9.999999747378752e-05
6.70576118864119e-05,1.0,0.6704241037368774,0.8899999856948853,9.999999747378752e-05
0.00035352277336642146,1.0,0.6624020338058472,0.8899999856948853,9.999999747378752e-05
1.6075338862719946e-05,1.0,0.6410698890686035,0.8899999856948853,9.999999747378752e-05
1.5264849935192615e-05,1.0,0.6350014209747314,0.8899999856948853,9.999999747378752e-05
0.00011348338011885062,1.0,0.634232223033905,0.8899999856948853,9.999999747378752e-05
3.2619635021546856e-05,1.0,0.6354467272758484,0.8899999856948853,9.999999747378752e-05
3.152564022457227e-05,1.0,0.6375284790992737,0.8899999856948853,9.999999747378752e-05
3.9563936297781765e-05,1.0,0.6401708722114563,0.8899999856948853,9.999999747378752e-05
3.090778409386985e-05,1.0,0.6423289775848389,0.8899999856948853,9.999999747378752e-05
2.495341504982207e-05,1.0,0.6439969539642334,0.8899999856948853,9.999999747378752e-05
8.049792086239904e-06,1.0,0.6451776027679443,0.8899999856948853,9.999999747378752e-05
4.712616646429524e-05,1.0,0.6472480297088623,0.8899999856948853,9.999999747378752e-05
8.959202386904508e-05,1.0,0.6491418480873108,0.8899999856948853,9.999999747378752e-05
2.2906013327883556e-05,1.0,0.6507979035377502,0.8899999856948853,9.999999747378752e-05
2.139516618626658e-05,1.0,0.6528323292732239,0.8899999856948853,9.999999747378752e-05
1.0417287739983294e-05,1.0,0.6533357501029968,0.8999999761581421,9.999999747378752e-05
3.176562313456088e-05,1.0,0.6543071269989014,0.8999999761581421,9.999999747378752e-05
6.3513311943097506e-06,1.0,0.6549322009086609,0.8999999761581421,9.999999747378752e-05
4.546061609289609e-05,1.0,0.6562982201576233,0.8999999761581421,9.999999747378752e-05
3.200529681635089e-05,1.0,0.6575284004211426,0.8999999761581421,9.999999747378752e-05
1.1771193385357037e-05,1.0,0.657746434211731,0.8999999761581421,9.999999747378752e-05
2.6815539968083613e-05,1.0,0.6584530472755432,0.8999999761581421,9.999999747378752e-05
1.7578908227733336e-05,1.0,0.6583053469657898,0.8999999761581421,9.999999747378752e-05
1.3612622751679737e-05,1.0,0.6582367420196533,0.8999999761581421,9.999999747378752e-05
7.77699187892722e-06,1.0,0.6586840748786926,0.8999999761581421,9.999999747378752e-05
2.480042167007923e-05,1.0,0.6598297953605652,0.8999999761581421,9.999999747378752e-05
1.4187488886818755e-05,1.0,0.6607680320739746,0.8999999761581421,9.999999747378752e-05
4.305529364501126e-05,1.0,0.6614194512367249,0.8999999761581421,9.999999747378752e-05
2.0975501684006304e-05,1.0,0.6627371907234192,0.8999999761581421,9.999999747378752e-05
6.7542587203206494e-06,1.0,0.6633409857749939,0.8999999761581421,9.999999747378752e-05
1.5639127013855614e-05,1.0,0.6640363931655884,0.8999999761581421,9.999999747378752e-05
4.220817208988592e-05,1.0,0.6657703518867493,0.8999999761581421,9.999999747378752e-05
8.990419883048162e-05,1.0,0.665269672870636,0.8999999761581421,9.999999747378752e-05
0.0001591286127222702,1.0,0.6648705005645752,0.8999999761581421,9.999999747378752e-05
2.518093606340699e-05,1.0,0.6646029949188232,0.8999999761581421,9.999999747378752e-05
0.0001329474471276626,1.0,0.6674577593803406,0.8999999761581421,9.999999747378752e-05
5.513454379979521e-05,1.0,0.6704660058021545,0.8999999761581421,9.999999747378752e-05
1.547410647617653e-05,1.0,0.6714624166488647,0.8999999761581421,9.999999747378752e-05
5.138467167853378e-05,1.0,0.6734603047370911,0.8999999761581421,9.999999747378752e-05
2.5076084057218395e-05,1.0,0.6741851568222046,0.8999999761581421,9.999999747378752e-05
1.5250854630721733e-05,1.0,0.6752074956893921,0.8999999761581421,9.999999747378752e-05
1.4069470125832595e-05,1.0,0.6750002503395081,0.8999999761581421,9.999999747378752e-05
1.0529425708227791e-05,1.0,0.6748262643814087,0.8999999761581421,9.999999747378752e-05
4.996060306439176e-05,1.0,0.6761423349380493,0.8999999761581421,9.999999747378752e-05
2.2200809326022863e-05,1.0,0.6761060953140259,0.8999999761581421,9.999999747378752e-05
6.8567223934223875e-06,1.0,0.6758430004119873,0.8999999761581421,9.999999747378752e-05
7.688671757932752e-06,1.0,0.6755015850067139,0.8999999761581421,9.999999747378752e-05
1.3791302080790047e-05,1.0,0.6751817464828491,0.8999999761581421,9.999999747378752e-05
1.1616482879617251e-05,1.0,0.674988865852356,0.8999999761581421,9.999999747378752e-05
1.1811929653049447e-05,1.0,0.6746456623077393,0.8999999761581421,9.999999747378752e-05
4.829881072510034e-05,1.0,0.6752136945724487,0.8999999761581421,9.999999747378752e-05
9.635423339204863e-06,1.0,0.6755314469337463,0.8999999761581421,9.999999747378752e-05
1.498745859862538e-05,1.0,0.6755424737930298,0.8999999761581421,9.999999747378752e-05
2.476396730344277e-05,1.0,0.6762561798095703,0.8999999761581421,9.999999747378752e-05
1.706182047200855e-05,1.0,0.6763845682144165,0.8999999761581421,9.999999747378752e-05
1.4491018191620242e-05,1.0,0.676418662071228,0.8999999761581421,9.999999747378752e-05
8.115619129966944e-05,1.0,0.6753376722335815,0.8999999761581421,9.999999747378752e-05
7.93781946413219e-05,1.0,0.6754246354103088,0.8999999761581421,9.999999747378752e-05
1.7335069060209207e-05,1.0,0.6762380003929138,0.8999999761581421,9.999999747378752e-05
4.221501149004325e-05,1.0,0.6778822541236877,0.8999999761581421,9.999999747378752e-05
1.1378147974028252e-05,1.0,0.6780281066894531,0.8999999761581421,9.999999747378752e-05
1.3095996109768748e-05,1.0,0.6778396368026733,0.8999999761581421,9.999999747378752e-05
9.501889508101158e-06,1.0,0.6780784130096436,0.8999999761581421,9.999999747378752e-05
5.6904613302322105e-05,1.0,0.6792871952056885,0.8999999761581421,9.999999747378752e-05
3.115269646514207e-05,1.0,0.6795973181724548,0.8999999761581421,9.999999747378752e-05
1.553331094328314e-05,1.0,0.6792779564857483,0.8999999761581421,9.999999747378752e-05
6.271467555052368e-06,1.0,0.6786451935768127,0.8999999761581421,9.999999747378752e-05
2.464787394274026e-05,1.0,0.6795045733451843,0.8999999761581421,9.999999747378752e-05
1.0752100934041664e-05,1.0,0.6791223883628845,0.8999999761581421,9.999999747378752e-05
1.7712391127133742e-05,1.0,0.6798019409179688,0.8999999761581421,9.999999747378752e-05
1.7286422007600777e-05,1.0,0.6812212467193604,0.8999999761581421,9.999999747378752e-05
1.0358688086853363e-05,1.0,0.6813479661941528,0.8999999761581421,9.999999747378752e-05
1.1339654520270415e-05,1.0,0.6815651655197144,0.8999999761581421,9.999999747378752e-05
1.2114827768527903e-05,1.0,0.6827484965324402,0.8999999761581421,9.999999747378752e-05
1.3642299563798588e-05,1.0,0.6826632618904114,0.8999999761581421,9.999999747378752e-05
5.308295840222854e-06,1.0,0.682523787021637,0.8999999761581421,9.999999747378752e-05
1.0776158887892962e-05,1.0,0.6823180317878723,0.8999999761581421,9.999999747378752e-05
1.036725916492287e-05,1.0,0.6818010210990906,0.8999999761581421,9.999999747378752e-05
1.459759096178459e-05,1.0,0.681968092918396,0.8999999761581421,9.999999747378752e-05
9.077491995412856e-06,1.0,0.6822931170463562,0.8899999856948853,9.999999747378752e-05
4.9082318582804874e-05,1.0,0.6839125156402588,0.8899999856948853,9.999999747378752e-05
1.4427246242121328e-05,1.0,0.6841204166412354,0.8899999856948853,9.999999747378752e-05
3.166719761793502e-05,1.0,0.6854609847068787,0.8899999856948853,9.999999747378752e-05
1.4770398593100253e-05,1.0,0.6867868304252625,0.8899999856948853,9.999999747378752e-05
7.060376447043382e-06,1.0,0.6869062185287476,0.8899999856948853,9.999999747378752e-05
5.0817616283893585e-05,1.0,0.6860119700431824,0.8899999856948853,9.999999747378752e-05
7.728803757345304e-05,1.0,0.689069390296936,0.8899999856948853,9.999999747378752e-05
6.631221822317457e-06,1.0,0.6891277432441711,0.8899999856948853,9.999999747378752e-05
7.554706826340407e-05,1.0,0.6934672594070435,0.8899999856948853,9.999999747378752e-05
1.7518461390864104e-05,1.0,0.6957654356956482,0.8899999856948853,9.999999747378752e-05
2.508786019461695e-05,1.0,0.696655809879303,0.8899999856948853,9.999999747378752e-05
3.4529060940258205e-05,1.0,0.6954272389411926,0.8899999856948853,9.999999747378752e-05
1.4733415810042061e-05,1.0,0.6944757699966431,0.8899999856948853,9.999999747378752e-05
1.5929696019156836e-05,1.0,0.6941260695457458,0.8899999856948853,9.999999747378752e-05
1.0438353456265759e-05,1.0,0.6938498020172119,0.8899999856948853,9.999999747378752e-05
1.6524811144336127e-05,1.0,0.6939798593521118,0.8899999856948853,9.999999747378752e-05
4.7565368731739e-05,1.0,0.6946148872375488,0.8899999856948853,9.999999747378752e-05
7.240211562020704e-05,1.0,0.6966741681098938,0.8899999856948853,9.999999747378752e-05
1.1505572729220148e-05,1.0,0.7014460563659668,0.8899999856948853,9.999999747378752e-05
9.819387742027175e-06,1.0,0.7022716999053955,0.8899999856948853,9.999999747378752e-05
7.068295235512778e-05,1.0,0.7080944180488586,0.8899999856948853,9.999999747378752e-05
5.7630535593489185e-05,1.0,0.7099617719650269,0.8899999856948853,9.999999747378752e-05
1.4323203686217312e-05,1.0,0.7088867425918579,0.8899999856948853,9.999999747378752e-05
6.010207289364189e-05,1.0,0.7036617994308472,0.8899999856948853,9.999999747378752e-05
5.707637228624662e-06,1.0,0.7009406089782715,0.8899999856948853,9.999999747378752e-05
1.4990941053838469e-05,1.0,0.6994672417640686,0.8899999856948853,9.999999747378752e-05
1.821308978833258e-05,1.0,0.6991348266601562,0.8899999856948853,9.999999747378752e-05
1.5075912415341008e-05,1.0,0.7006528377532959,0.8899999856948853,9.999999747378752e-05
3.640366776380688e-05,1.0,0.7019731402397156,0.8899999856948853,9.999999747378752e-05
1.428519499313552e-05,1.0,0.703640341758728,0.8899999856948853,9.999999747378752e-05
1.0569960977591109e-05,1.0,0.7040888071060181,0.8899999856948853,9.999999747378752e-05
7.037973773549311e-06,1.0,0.7046319842338562,0.8899999856948853,9.999999747378752e-05
4.126048952457495e-05,1.0,0.7049696445465088,0.8899999856948853,9.999999747378752e-05
1.0540007679082919e-05,1.0,0.7039238810539246,0.8899999856948853,9.999999747378752e-05
4.279728455003351e-05,1.0,0.7039476037025452,0.8899999856948853,9.999999747378752e-05
5.545498424908146e-06,1.0,0.7037876844406128,0.8899999856948853,9.999999747378752e-05
4.666471795644611e-05,1.0,0.7029330730438232,0.8899999856948853,9.999999747378752e-05
6.1795713008905295e-06,1.0,0.7019016146659851,0.8899999856948853,9.999999747378752e-05
1.0485183338460047e-05,1.0,0.7021034359931946,0.8899999856948853,9.999999747378752e-05
1.8820421246346086e-05,1.0,0.7025585174560547,0.8899999856948853,9.999999747378752e-05
1.4069328244659118e-05,1.0,0.703311026096344,0.8899999856948853,9.999999747378752e-05
1.3991849300509784e-05,1.0,0.704474687576294,0.8899999856948853,9.999999747378752e-05
1.9119484932161868e-05,1.0,0.7056834697723389,0.8899999856948853,9.999999747378752e-05
7.416999324050266e-06,1.0,0.7063251733779907,0.8899999856948853,9.999999747378752e-05
2.7360520107322372e-05,1.0,0.7069764733314514,0.8899999856948853,9.999999747378752e-05
4.2317482439102605e-05,1.0,0.7057318687438965,0.8899999856948853,9.999999747378752e-05
1.277148930967087e-05,1.0,0.7070269584655762,0.8899999856948853,9.999999747378752e-05
1.6929989214986563e-05,1.0,0.7080752849578857,0.8899999856948853,9.999999747378752e-05
6.87584270053776e-06,1.0,0.708446204662323,0.8899999856948853,9.999999747378752e-05
4.167679071542807e-05,1.0,0.7084042429924011,0.8899999856948853,9.999999747378752e-05
5.694536866940325e-06,1.0,0.7080161571502686,0.8899999856948853,9.999999747378752e-05
1.1271720723016188e-05,1.0,0.7082890868186951,0.8899999856948853,9.999999747378752e-05
1.5881023500696756e-05,1.0,0.709210216999054,0.8899999856948853,9.999999747378752e-05
7.537461897300091e-06,1.0,0.7095987796783447,0.8899999856948853,9.999999747378752e-05
6.196866888785735e-05,1.0,0.7122707962989807,0.8899999856948853,9.999999747378752e-05
0.00010631439363351092,1.0,0.7299812436103821,0.8899999856948853,9.999999747378752e-05
7.93417257227702e-06,1.0,0.73755943775177,0.8899999856948853,9.999999747378752e-05
1.552947833260987e-05,1.0,0.7392449975013733,0.8899999856948853,9.999999747378752e-05
6.925884463271359e-06,1.0,0.737775981426239,0.8899999856948853,9.999999747378752e-05
4.0551498386776075e-05,1.0,0.7364093065261841,0.8899999856948853,9.999999747378752e-05
2.7708692869055085e-05,1.0,0.7361564636230469,0.8899999856948853,9.999999747378752e-05
3.2499036024091765e-05,1.0,0.7376216053962708,0.8899999856948853,9.999999747378752e-05
4.386832642921945e-06,1.0,0.7357989549636841,0.8899999856948853,9.999999747378752e-05
8.067768249020446e-06,1.0,0.7339853644371033,0.8899999856948853,9.999999747378752e-05
3.87078252970241e-05,1.0,0.7346635460853577,0.8899999856948853,9.999999747378752e-05
0.0001598134113010019,1.0,0.7572872042655945,0.8899999856948853,9.999999747378752e-05
1.1006094609911088e-05,1.0,0.7659181356430054,0.8899999856948853,9.999999747378752e-05
1.4759553778276313e-05,1.0,0.7678062915802002,0.8899999856948853,9.999999747378752e-05
2.925528860941995e-05,1.0,0.7656506896018982,0.8899999856948853,9.999999747378752e-05
5.7042998378165066e-05,1.0,0.7597624063491821,0.8899999856948853,9.999999747378752e-05
4.23425126427901e-06,1.0,0.7496995329856873,0.8899999856948853,9.999999747378752e-05
4.1059462091652676e-05,1.0,0.7467135787010193,0.8899999856948853,9.999999747378752e-05
4.349769005784765e-05,1.0,0.7469506859779358,0.8899999856948853,9.999999747378752e-05
8.66018672240898e-06,1.0,0.7477259039878845,0.8899999856948853,9.999999747378752e-05
3.81704148821882e-06,1.0,0.74824059009552,0.8899999856948853,9.999999747378752e-05
4.3034042391809635e-06,1.0,0.7486239075660706,0.8899999856948853,9.999999747378752e-05
1.149735544458963e-05,1.0,0.7488763332366943,0.8899999856948853,9.999999747378752e-05
9.232505362888332e-06,1.0,0.748505711555481,0.8899999856948853,9.999999747378752e-05
4.5680153561988845e-06,1.0,0.7484831809997559,0.8899999856948853,9.999999747378752e-05
6.611229764530435e-06,1.0,0.7482993602752686,0.8899999856948853,9.999999747378752e-05
3.7030560633866116e-05,1.0,0.7463542222976685,0.8899999856948853,9.999999747378752e-05
6.213871529325843e-05,1.0,0.7445260882377625,0.8899999856948853,9.999999747378752e-05
7.605349310324527e-06,1.0,0.7436646223068237,0.8899999856948853,9.999999747378752e-05
8.555361091566738e-06,1.0,0.7438326478004456,0.8899999856948853,9.999999747378752e-05
5.5182546930154786e-05,1.0,0.7452291250228882,0.8899999856948853,9.999999747378752e-05
5.730279735871591e-05,1.0,0.7444446086883545,0.8899999856948853,9.999999747378752e-05
6.425169885915238e-06,1.0,0.74306321144104,0.8899999856948853,9.999999747378752e-05
5.873163900105283e-06,1.0,0.742255687713623,0.8899999856948853,9.999999747378752e-05
2.072336064884439e-05,1.0,0.742675244808197,0.8899999856948853,9.999999747378752e-05
2.6758923922898248e-05,1.0,0.7440758347511292,0.8899999856948853,9.999999747378752e-05
1.2683482054853812e-05,1.0,0.7448540329933167,0.8899999856948853,9.999999747378752e-05
1.663138209551107e-05,1.0,0.7453809380531311,0.8899999856948853,9.999999747378752e-05
1.9386652638786472e-05,1.0,0.7460479736328125,0.8899999856948853,9.999999747378752e-05
4.43929366156226e-06,1.0,0.7461984157562256,0.8899999856948853,9.999999747378752e-05
7.692401595704723e-06,1.0,0.7466561794281006,0.8899999856948853,9.999999747378752e-05
3.071774335694499e-05,1.0,0.7472608685493469,0.8899999856948853,9.999999747378752e-05
7.360865311056841e-06,1.0,0.7467204928398132,0.8899999856948853,9.999999747378752e-05
4.534602339845151e-06,1.0,0.746401846408844,0.8899999856948853,9.999999747378752e-05
9.235944162355736e-06,1.0,0.7466212511062622,0.8899999856948853,9.999999747378752e-05
8.512308340868913e-06,1.0,0.7472501993179321,0.8899999856948853,9.999999747378752e-05
5.342868917068699e-06,1.0,0.7474517822265625,0.8899999856948853,9.999999747378752e-05
7.838788405933883e-06,1.0,0.7476188540458679,0.8899999856948853,9.999999747378752e-05
3.408937845961191e-05,1.0,0.7479698061943054,0.8899999856948853,9.999999747378752e-05
6.813722848164616e-06,1.0,0.7481449842453003,0.8899999856948853,9.999999747378752e-05
6.416737960535102e-06,1.0,0.7490370869636536,0.8899999856948853,9.999999747378752e-05
2.1856567400391214e-05,1.0,0.7499992847442627,0.8899999856948853,9.999999747378752e-05
1.2289518053876236e-05,1.0,0.7490253448486328,0.8899999856948853,9.999999747378752e-05
3.294736961834133e-05,1.0,0.7513123154640198,0.8899999856948853,9.999999747378752e-05
6.7637711254064925e-06,1.0,0.7518013715744019,0.8899999856948853,9.999999747378752e-05
1.9600929590524174e-05,1.0,0.752383828163147,0.8899999856948853,9.999999747378752e-05
4.0357394027523696e-05,1.0,0.752188503742218,0.8899999856948853,9.999999747378752e-05
1.1974884728260804e-05,1.0,0.7508010864257812,0.8899999856948853,9.999999747378752e-05
8.750776942179073e-06,1.0,0.7510948181152344,0.8899999856948853,9.999999747378752e-05
1.2384776709950529e-05,1.0,0.751564621925354,0.8899999856948853,9.999999747378752e-05
2.9199956770753488e-05,1.0,0.7542757987976074,0.8899999856948853,9.999999747378752e-05
6.159390977700241e-06,1.0,0.7563768029212952,0.8899999856948853,9.999999747378752e-05
6.439521257561864e-06,1.0,0.7565626502037048,0.8899999856948853,9.999999747378752e-05
3.2930634915828705e-05,1.0,0.7543351650238037,0.8899999856948853,9.999999747378752e-05
5.1795518629660364e-06,1.0,0.7537394165992737,0.8899999856948853,9.999999747378752e-05
1.3386823411565274e-05,1.0,0.7545691132545471,0.8899999856948853,9.999999747378752e-05
1.4502168596663978e-05,1.0,0.7564369440078735,0.8899999856948853,9.999999747378752e-05
3.6565288610290736e-05,1.0,0.7582369446754456,0.8899999856948853,9.999999747378752e-05
1.4600623217120301e-05,1.0,0.758974015712738,0.8899999856948853,9.999999747378752e-05
5.8661430557549465e-06,1.0,0.7586783766746521,0.8899999856948853,9.999999747378752e-05
2.331609903194476e-05,1.0,0.758888840675354,0.8899999856948853,9.999999747378752e-05
5.785069788544206e-06,1.0,0.7583086490631104,0.8899999856948853,9.999999747378752e-05
2.269731112392037e-06,1.0,0.7574955224990845,0.8899999856948853,9.999999747378752e-05
3.446264599915594e-06,1.0,0.7571079730987549,0.8899999856948853,9.999999747378752e-05
7.94095922174165e-06,1.0,0.7562779188156128,0.8899999856948853,9.999999747378752e-05
6.616044993279502e-05,1.0,0.7698967456817627,0.8899999856948853,9.999999747378752e-05
2.6086741854669526e-05,1.0,0.776505708694458,0.8899999856948853,9.999999747378752e-05
3.305652626295341e-06,1.0,0.7766173481941223,0.8899999856948853,9.999999747378752e-05
2.9905202609370463e-05,1.0,0.7768486142158508,0.8899999856948853,9.999999747378752e-05
6.385920642060228e-06,1.0,0.7761459350585938,0.8899999856948853,9.999999747378752e-05
5.591997251030989e-06,1.0,0.7740135192871094,0.8799999952316284,9.999999747378752e-05
1.2487670574046206e-05,1.0,0.772036075592041,0.8799999952316284,9.999999747378752e-05
7.78154208092019e-06,1.0,0.7697024345397949,0.8799999952316284,9.999999747378752e-05
1.1740697118511889e-05,1.0,0.7685503959655762,0.8799999952316284,9.999999747378752e-05
3.4319925816816976e-06,1.0,0.7670570611953735,0.8799999952316284,9.999999747378752e-05
4.308146799303358e-06,1.0,0.7661445736885071,0.8799999952316284,9.999999747378752e-05
6.730404493282549e-06,1.0,0.7652516961097717,0.8799999952316284,9.999999747378752e-05
1.2871768376498949e-05,1.0,0.7653803825378418,0.8799999952316284,9.999999747378752e-05
1.0657967322913464e-05,1.0,0.7652314901351929,0.8799999952316284,9.999999747378752e-05
3.0155169952195138e-05,1.0,0.7659565806388855,0.8799999952316284,9.999999747378752e-05
3.061257984882104e-06,1.0,0.7642310857772827,0.8799999952316284,9.999999747378752e-05
2.8476617444539443e-05,1.0,0.7657344937324524,0.8799999952316284,9.999999747378752e-05
1.4136154277366586e-05,1.0,0.7656971216201782,0.8799999952316284,9.999999747378752e-05
7.778204235364683e-06,1.0,0.7645952105522156,0.8799999952316284,9.999999747378752e-05
2.2470806015917333e-06,1.0,0.763729453086853,0.8799999952316284,9.999999747378752e-05
3.3426019854232436e-06,1.0,0.7628816366195679,0.8799999952316284,9.999999747378752e-05
3.061259349124157e-06,1.0,0.76169753074646,0.8799999952316284,9.999999747378752e-05
7.012735750322463e-06,1.0,0.7612926363945007,0.8799999952316284,9.999999747378752e-05
1.215968768519815e-05,1.0,0.7619103193283081,0.8799999952316284,9.999999747378752e-05
6.246426892175805e-06,1.0,0.7623047828674316,0.8799999952316284,9.999999747378752e-05
2.1612477212329395e-06,1.0,0.7615757584571838,0.8799999952316284,9.999999747378752e-05
3.268223372288048e-05,1.0,0.7623873353004456,0.8799999952316284,9.999999747378752e-05
5.256946678855456e-06,1.0,0.7629828453063965,0.8799999952316284,9.999999747378752e-05
9.231975127477199e-06,1.0,0.7629432678222656,0.8799999952316284,9.999999747378752e-05
7.525556156906532e-06,1.0,0.762622594833374,0.8799999952316284,9.999999747378752e-05
4.346307378000347e-06,1.0,0.7624322772026062,0.8799999952316284,9.999999747378752e-05
7.015235496510286e-06,1.0,0.7622635364532471,0.8799999952316284,9.999999747378752e-05
4.0757181523076724e-06,1.0,0.7626188397407532,0.8799999952316284,9.999999747378752e-05
3.16613932227483e-06,1.0,0.7621599435806274,0.8799999952316284,9.999999747378752e-05
2.5822264433372766e-05,1.0,0.7625546455383301,0.8799999952316284,9.999999747378752e-05
