loss,accuracy,val_loss,val_accuracy,lr
0.5017131567001343,0.7699999809265137,0.6822096109390259,0.6899999976158142,0.0010000000474974513
0.4340948164463043,0.8199999928474426,0.6617122888565063,0.8100000023841858,0.0010000000474974513
0.3930523991584778,0.8399999737739563,0.6988272666931152,0.36000001430511475,0.0010000000474974513
0.3338050842285156,0.8500000238418579,0.8216254711151123,0.36000001430511475,0.0010000000474974513
0.28344258666038513,0.8899999856948853,0.9952220916748047,0.36000001430511475,0.0010000000474974513
0.28036829829216003,0.9100000262260437,1.1657605171203613,0.36000001430511475,0.0010000000474974513
0.21298730373382568,0.8899999856948853,1.3837696313858032,0.36000001430511475,0.0010000000474974513
0.23291517794132233,0.9300000071525574,1.6306180953979492,0.36000001430511475,0.0010000000474974513
0.24070267379283905,0.9100000262260437,1.6738685369491577,0.36000001430511475,0.0010000000474974513
0.22705236077308655,0.9300000071525574,2.161194086074829,0.36000001430511475,0.0010000000474974513
0.18757842481136322,0.949999988079071,2.3122239112854004,0.36000001430511475,0.0010000000474974513
0.15774807333946228,0.9700000286102295,2.5619957447052,0.36000001430511475,0.0010000000474974513
0.20469677448272705,0.9399999976158142,2.4185123443603516,0.36000001430511475,0.0010000000474974513
0.23027095198631287,0.8999999761581421,2.639570951461792,0.36000001430511475,0.0010000000474974513
0.16473321616649628,0.9300000071525574,3.1810672283172607,0.36000001430511475,0.0010000000474974513
0.1414889395236969,0.9399999976158142,2.7479360103607178,0.36000001430511475,0.0010000000474974513
0.12221312522888184,0.9599999785423279,3.049171209335327,0.36000001430511475,0.0010000000474974513
0.14621442556381226,0.9399999976158142,2.491198778152466,0.36000001430511475,0.0010000000474974513
0.13857144117355347,0.9599999785423279,1.9767111539840698,0.36000001430511475,0.0010000000474974513
0.24109995365142822,0.9100000262260437,2.770810842514038,0.36000001430511475,0.0010000000474974513
0.1670428216457367,0.9599999785423279,1.7401020526885986,0.36000001430511475,0.0010000000474974513
0.18976962566375732,0.9399999976158142,2.487091302871704,0.36000001430511475,0.0010000000474974513
0.16289104521274567,0.949999988079071,2.2843101024627686,0.36000001430511475,0.0010000000474974513
0.16414476931095123,0.949999988079071,1.4255939722061157,0.36000001430511475,0.0010000000474974513
0.21423101425170898,0.9200000166893005,1.2632064819335938,0.36000001430511475,0.0010000000474974513
0.1596725881099701,0.949999988079071,2.0505130290985107,0.36000001430511475,0.0010000000474974513
0.10936986654996872,0.9599999785423279,1.6872652769088745,0.36000001430511475,0.0010000000474974513
0.09213542938232422,0.9800000190734863,1.74176025390625,0.36000001430511475,0.0010000000474974513
0.1024065762758255,0.9800000190734863,1.4538034200668335,0.36000001430511475,0.0010000000474974513
0.09860124439001083,0.9700000286102295,1.627158522605896,0.3700000047683716,0.0010000000474974513
0.07036077976226807,0.9800000190734863,1.8903671503067017,0.36000001430511475,0.0010000000474974513
0.049379412084817886,1.0,2.1296892166137695,0.36000001430511475,0.0010000000474974513
0.17059274017810822,0.9300000071525574,0.42509785294532776,0.8100000023841858,0.0010000000474974513
0.22801242768764496,0.8999999761581421,0.6605557799339294,0.7099999785423279,0.0010000000474974513
0.23205046355724335,0.8899999856948853,1.851742148399353,0.3700000047683716,0.0010000000474974513
0.33247071504592896,0.8399999737739563,0.57131028175354,0.7699999809265137,0.0010000000474974513
0.1700126975774765,0.9399999976158142,0.44308698177337646,0.8399999737739563,0.0010000000474974513
0.2422999143600464,0.9100000262260437,0.38585761189460754,0.8399999737739563,0.0010000000474974513
0.21429328620433807,0.9200000166893005,0.3118080198764801,0.8600000143051147,0.0010000000474974513
0.10413043946027756,0.9700000286102295,0.6892428398132324,0.7699999809265137,0.0010000000474974513
0.12390810251235962,0.9700000286102295,0.4775733947753906,0.8199999928474426,0.0010000000474974513
0.12959007918834686,0.949999988079071,0.3183780014514923,0.8799999952316284,0.0010000000474974513
0.11664927750825882,0.9700000286102295,0.6415393948554993,0.75,0.0010000000474974513
0.1347978413105011,0.9300000071525574,0.7681257128715515,0.6700000166893005,0.0010000000474974513
0.18488427996635437,0.9300000071525574,0.5392258763313293,0.75,0.0010000000474974513
0.15716129541397095,0.9399999976158142,0.5026976466178894,0.7900000214576721,0.0010000000474974513
0.10469812154769897,0.9700000286102295,0.42581042647361755,0.8199999928474426,0.0010000000474974513
0.09977687895298004,0.9599999785423279,0.43851515650749207,0.8600000143051147,0.0010000000474974513
0.10801056027412415,0.949999988079071,0.32952284812927246,0.8799999952316284,0.0010000000474974513
0.1446436196565628,0.9399999976158142,0.2899931073188782,0.8799999952316284,0.0010000000474974513
0.07612943649291992,0.9900000095367432,0.2909049093723297,0.8799999952316284,0.0010000000474974513
0.04983498156070709,0.9900000095367432,0.4748041033744812,0.8299999833106995,0.0010000000474974513
0.06642390787601471,0.9900000095367432,0.30045247077941895,0.8700000047683716,0.0010000000474974513
0.10815747082233429,0.9700000286102295,0.30074357986450195,0.8700000047683716,0.0010000000474974513
0.07553012669086456,0.9900000095367432,0.3149017095565796,0.8600000143051147,0.0010000000474974513
0.04685674607753754,1.0,0.29414379596710205,0.8799999952316284,0.0010000000474974513
0.038902509957551956,0.9900000095367432,0.3080403804779053,0.8799999952316284,0.0010000000474974513
0.05010715499520302,0.9800000190734863,0.42245787382125854,0.8199999928474426,0.0010000000474974513
0.052416153252124786,0.9900000095367432,0.41528648138046265,0.8399999737739563,0.0010000000474974513
0.023217465728521347,1.0,0.3009600341320038,0.8799999952316284,0.0010000000474974513
0.08458976447582245,0.9800000190734863,0.4473020136356354,0.8199999928474426,0.0010000000474974513
0.03360594063997269,1.0,0.28919869661331177,0.8799999952316284,0.0010000000474974513
0.03566042706370354,1.0,0.6946783661842346,0.800000011920929,0.0010000000474974513
0.054853640496730804,1.0,0.9528990983963013,0.7300000190734863,0.0010000000474974513
0.08136698603630066,0.9700000286102295,0.3196547329425812,0.8799999952316284,0.0010000000474974513
0.03691481798887253,1.0,1.0053693056106567,0.7699999809265137,0.0010000000474974513
0.1503603607416153,0.9399999976158142,0.9308390617370605,0.75,0.0010000000474974513
0.23657585680484772,0.8799999952316284,0.7624818682670593,0.8600000143051147,0.0010000000474974513
0.21486347913742065,0.9100000262260437,4.589682579040527,0.6399999856948853,0.0010000000474974513
0.12568362057209015,0.9599999785423279,0.5101645588874817,0.8299999833106995,0.0010000000474974513
0.19243335723876953,0.8999999761581421,0.3566040098667145,0.8600000143051147,0.0010000000474974513
0.16483424603939056,0.9200000166893005,0.4877091944217682,0.8500000238418579,0.0010000000474974513
0.10190494358539581,0.9800000190734863,0.3964149057865143,0.8399999737739563,0.0010000000474974513
0.11174458265304565,0.9599999785423279,0.31584951281547546,0.8899999856948853,0.0010000000474974513
0.08453703671693802,0.9800000190734863,0.6672958135604858,0.7799999713897705,0.0010000000474974513
0.13226185739040375,0.9300000071525574,0.6575822234153748,0.8100000023841858,0.0010000000474974513
0.10338469594717026,0.9700000286102295,0.36873242259025574,0.8999999761581421,0.0010000000474974513
0.10791733860969543,0.949999988079071,0.40732696652412415,0.8299999833106995,0.0010000000474974513
0.06829479336738586,0.9800000190734863,0.5343532562255859,0.8500000238418579,0.0010000000474974513
0.061214879155159,0.9800000190734863,1.5604653358459473,0.5099999904632568,0.0010000000474974513
0.06358350068330765,0.9800000190734863,0.4416830837726593,0.8100000023841858,0.0010000000474974513
0.09293538331985474,0.9800000190734863,0.3926815092563629,0.8600000143051147,0.0010000000474974513
0.09508370608091354,0.949999988079071,0.5138683319091797,0.800000011920929,0.0010000000474974513
0.06288077682256699,0.9800000190734863,0.7972795963287354,0.7400000095367432,0.0010000000474974513
0.0852227583527565,0.9700000286102295,0.3574299216270447,0.8600000143051147,0.0010000000474974513
0.048645876348018646,0.9900000095367432,2.3379080295562744,0.38999998569488525,0.0010000000474974513
0.03188832104206085,0.9900000095367432,1.3539177179336548,0.550000011920929,0.0010000000474974513
0.07240594923496246,0.9800000190734863,0.3788481056690216,0.8700000047683716,0.0010000000474974513
0.029502935707569122,0.9900000095367432,0.3546993136405945,0.8799999952316284,0.0010000000474974513
0.03296598792076111,1.0,0.3369410037994385,0.8600000143051147,0.0010000000474974513
0.027944499626755714,1.0,0.3115578889846802,0.8799999952316284,0.0010000000474974513
0.03213367983698845,0.9900000095367432,0.3061179220676422,0.8999999761581421,0.0010000000474974513
0.017839668318629265,1.0,0.3128121495246887,0.8600000143051147,0.0010000000474974513
0.00701390253379941,1.0,0.3320995271205902,0.8600000143051147,0.0010000000474974513
0.0157559085637331,1.0,0.3016006350517273,0.8899999856948853,0.0010000000474974513
0.0146022979170084,1.0,0.31507357954978943,0.8799999952316284,0.0010000000474974513
0.010067861527204514,1.0,0.3418201506137848,0.8600000143051147,0.0010000000474974513
0.007846007123589516,1.0,0.42298686504364014,0.8700000047683716,0.0010000000474974513
0.009088718332350254,1.0,0.3397497832775116,0.8600000143051147,0.0010000000474974513
0.014914076775312424,1.0,0.3335285484790802,0.8899999856948853,0.0010000000474974513
0.023974092677235603,0.9900000095367432,1.6937936544418335,0.6800000071525574,0.0010000000474974513
0.059701256453990936,0.9800000190734863,0.42065852880477905,0.8600000143051147,0.0010000000474974513
0.060457661747932434,0.9800000190734863,1.846846103668213,0.550000011920929,0.0010000000474974513
0.06336059421300888,1.0,0.4002401828765869,0.8700000047683716,0.0010000000474974513
0.05258069932460785,0.9900000095367432,0.5216929316520691,0.8799999952316284,0.0010000000474974513
0.07463990896940231,0.9700000286102295,0.4018716514110565,0.8899999856948853,0.0010000000474974513
0.03390767052769661,0.9900000095367432,0.6264291405677795,0.800000011920929,0.0010000000474974513
0.04381619393825531,0.9900000095367432,1.063389539718628,0.7400000095367432,0.0010000000474974513
0.0344262570142746,0.9900000095367432,0.5146217346191406,0.8299999833106995,0.0010000000474974513
0.04647304490208626,0.9900000095367432,0.5327004790306091,0.8299999833106995,0.0010000000474974513
0.04182198643684387,0.9900000095367432,0.3357688784599304,0.8700000047683716,0.0010000000474974513
0.030489280819892883,0.9900000095367432,0.35768240690231323,0.8399999737739563,0.0010000000474974513
0.021336497738957405,1.0,0.37921562790870667,0.8500000238418579,0.0010000000474974513
0.013204650953412056,1.0,0.34128791093826294,0.8700000047683716,0.0010000000474974513
0.010457046329975128,1.0,0.3419485092163086,0.8899999856948853,0.0010000000474974513
0.014318956062197685,1.0,0.34678444266319275,0.8899999856948853,0.0010000000474974513
0.013724119402468204,1.0,0.3795722723007202,0.8899999856948853,0.0010000000474974513
0.010196284390985966,1.0,0.39299526810646057,0.8899999856948853,0.0010000000474974513
0.017684511840343475,1.0,0.3371249735355377,0.8899999856948853,0.0010000000474974513
0.015570199117064476,1.0,0.5588681697845459,0.8299999833106995,0.0010000000474974513
0.006689039524644613,1.0,0.3700083792209625,0.8500000238418579,0.0010000000474974513
0.005384793970733881,1.0,0.3372427225112915,0.8899999856948853,0.0010000000474974513
0.006154033355414867,1.0,0.337299108505249,0.8999999761581421,0.0010000000474974513
0.004581592511385679,1.0,0.33967116475105286,0.8600000143051147,0.0010000000474974513
0.0067643774673342705,1.0,0.3327271640300751,0.8999999761581421,0.0010000000474974513
0.004493023734539747,1.0,0.4263344705104828,0.8700000047683716,0.0010000000474974513
0.0030039732810109854,1.0,0.41718554496765137,0.8899999856948853,0.0010000000474974513
0.005387084558606148,1.0,0.35353031754493713,0.8899999856948853,0.0010000000474974513
0.0033093616366386414,1.0,0.3654242753982544,0.8600000143051147,0.0010000000474974513
0.006551576312631369,1.0,0.4100190997123718,0.8799999952316284,0.0010000000474974513
0.0050199865363538265,1.0,0.4291747212409973,0.8799999952316284,0.0010000000474974513
0.005216630175709724,1.0,0.3838976323604584,0.8899999856948853,0.0010000000474974513
0.005549865774810314,1.0,0.39570608735084534,0.8799999952316284,0.0010000000474974513
0.002870843978598714,1.0,0.47611942887306213,0.8899999856948853,0.0010000000474974513
0.002490085316821933,1.0,0.4805554151535034,0.8899999856948853,0.0010000000474974513
0.017988033592700958,1.0,0.5635426044464111,0.8700000047683716,0.0010000000474974513
0.021884972229599953,1.0,0.5927369594573975,0.8399999737739563,0.0010000000474974513
0.013945020735263824,0.9900000095367432,0.8125074505805969,0.7699999809265137,0.0010000000474974513
0.00808538869023323,1.0,0.40722915530204773,0.8700000047683716,0.0010000000474974513
0.005227719433605671,1.0,0.48256194591522217,0.8799999952316284,0.0010000000474974513
0.004438936244696379,1.0,0.43217143416404724,0.8899999856948853,0.0010000000474974513
0.0032338981982320547,1.0,0.37661248445510864,0.8899999856948853,0.0010000000474974513
0.0031663766130805016,1.0,0.3774622976779938,0.8799999952316284,0.0010000000474974513
0.007481956388801336,1.0,0.46577489376068115,0.8799999952316284,0.0010000000474974513
0.0053391968831419945,1.0,0.4963398277759552,0.8799999952316284,0.0010000000474974513
0.0036005545407533646,1.0,0.3917257785797119,0.8999999761581421,0.0010000000474974513
0.0022166117560118437,1.0,0.380316823720932,0.8899999856948853,0.0010000000474974513
0.001634198590181768,1.0,0.3955058753490448,0.8899999856948853,0.0010000000474974513
0.006211249623447657,1.0,0.449858158826828,0.8899999856948853,0.0010000000474974513
0.019393838942050934,0.9900000095367432,0.6352044939994812,0.800000011920929,0.0010000000474974513
0.04462394118309021,0.9800000190734863,2.180182695388794,0.7200000286102295,0.0010000000474974513
0.17094944417476654,0.9200000166893005,3.580230712890625,0.6899999976158142,0.0010000000474974513
0.13543404638767242,0.949999988079071,1.8023589849472046,0.7400000095367432,0.0010000000474974513
0.11331450194120407,0.949999988079071,1.5401431322097778,0.7900000214576721,0.0010000000474974513
0.06891214102506638,0.9700000286102295,14.508399963378906,0.36000001430511475,0.0010000000474974513
0.13859982788562775,0.949999988079071,0.6604866981506348,0.8299999833106995,0.0010000000474974513
0.07610423117876053,0.9900000095367432,0.6108646988868713,0.8399999737739563,0.0010000000474974513
0.15395303070545197,0.9399999976158142,0.5905293822288513,0.8199999928474426,0.0010000000474974513
0.23438076674938202,0.9200000166893005,2.529552936553955,0.41999998688697815,0.0010000000474974513
0.15027517080307007,0.9599999785423279,3.115795850753784,0.36000001430511475,0.0010000000474974513
0.12108317017555237,0.9700000286102295,0.8276857137680054,0.7599999904632568,0.0010000000474974513
0.08112744987010956,0.9800000190734863,0.39903998374938965,0.8500000238418579,0.0010000000474974513
0.1192019060254097,0.949999988079071,0.46283382177352905,0.8700000047683716,0.0010000000474974513
0.041719332337379456,1.0,0.5320965647697449,0.8700000047683716,0.0010000000474974513
0.03871215507388115,0.9900000095367432,0.3983389139175415,0.9100000262260437,0.0010000000474974513
0.07121001929044724,0.9900000095367432,0.3734298646450043,0.8700000047683716,0.0010000000474974513
0.03322988003492355,1.0,0.43090343475341797,0.8700000047683716,0.0010000000474974513
0.01600508578121662,1.0,0.4001845419406891,0.8500000238418579,0.0010000000474974513
0.036456603556871414,0.9900000095367432,0.30267924070358276,0.8999999761581421,0.0010000000474974513
0.008054854348301888,1.0,0.2973087728023529,0.8700000047683716,0.0010000000474974513
0.009397003799676895,1.0,0.34115830063819885,0.8500000238418579,0.0010000000474974513
0.006538592744618654,1.0,0.32479342818260193,0.8600000143051147,0.0010000000474974513
0.007004342041909695,1.0,0.30971479415893555,0.8700000047683716,0.0010000000474974513
0.017620688304305077,1.0,0.30802953243255615,0.8799999952316284,0.0010000000474974513
0.004058163613080978,1.0,0.33449530601501465,0.8600000143051147,0.0010000000474974513
0.02952452376484871,0.9900000095367432,0.3614564836025238,0.8899999856948853,0.0010000000474974513
0.02279612608253956,0.9900000095367432,0.371033638715744,0.8899999856948853,0.0010000000474974513
0.010187863372266293,1.0,0.4633355736732483,0.8799999952316284,0.0010000000474974513
0.019109509885311127,1.0,0.38852939009666443,0.8799999952316284,0.0010000000474974513
0.008437060751020908,1.0,0.3449529707431793,0.8899999856948853,0.0010000000474974513
0.005034574773162603,1.0,0.3559750020503998,0.8799999952316284,0.0010000000474974513
0.009509071707725525,1.0,0.4451826214790344,0.8600000143051147,0.0010000000474974513
0.00487036956474185,1.0,0.5671719908714294,0.8399999737739563,0.0010000000474974513
0.008535797707736492,1.0,0.4586491882801056,0.8700000047683716,0.0010000000474974513
0.008298259228467941,1.0,0.3908165693283081,0.8899999856948853,0.0010000000474974513
0.007944265380501747,1.0,0.3653346002101898,0.8399999737739563,0.0010000000474974513
0.025861477479338646,1.0,2.0081822872161865,0.6800000071525574,0.0010000000474974513
0.03932046517729759,0.9900000095367432,0.8424199819564819,0.7699999809265137,0.0010000000474974513
0.2070470005273819,0.8999999761581421,0.4381614029407501,0.8500000238418579,0.0010000000474974513
0.06504162400960922,0.9800000190734863,2.934513568878174,0.6700000166893005,0.0010000000474974513
0.1063394844532013,0.949999988079071,2.664693593978882,0.699999988079071,0.0010000000474974513
0.04768075421452522,0.9900000095367432,0.6721787452697754,0.8399999737739563,0.0010000000474974513
0.05900951474905014,0.9900000095367432,0.613679826259613,0.8899999856948853,0.0010000000474974513
0.024827899411320686,1.0,0.6557724475860596,0.8199999928474426,0.0010000000474974513
0.04070767015218735,1.0,0.6101139187812805,0.8600000143051147,0.0010000000474974513
0.024939948692917824,0.9900000095367432,1.6683627367019653,0.5299999713897705,0.0010000000474974513
0.01908072456717491,1.0,0.6610613465309143,0.8299999833106995,0.0010000000474974513
0.006070731207728386,1.0,0.3986620306968689,0.8799999952316284,0.0010000000474974513
0.005507321562618017,1.0,0.40069419145584106,0.8899999856948853,0.0005000000237487257
0.005565007217228413,1.0,0.3995588719844818,0.8999999761581421,0.0005000000237487257
0.01372149121016264,1.0,0.38826680183410645,0.8799999952316284,0.0005000000237487257
0.01040443405508995,1.0,0.39617133140563965,0.8600000143051147,0.0005000000237487257
0.004540441557765007,1.0,0.4013088345527649,0.8999999761581421,0.0005000000237487257
0.007143114693462849,1.0,0.4139520227909088,0.8899999856948853,0.0005000000237487257
0.014032735489308834,1.0,0.4038110673427582,0.8999999761581421,0.0005000000237487257
0.0036222522612661123,1.0,0.43247687816619873,0.8500000238418579,0.0005000000237487257
0.005583247169852257,1.0,0.4433692991733551,0.8500000238418579,0.0005000000237487257
0.006163839250802994,1.0,0.409440279006958,0.8600000143051147,0.0005000000237487257
0.016208216547966003,1.0,0.45392879843711853,0.8799999952316284,0.0005000000237487257
0.006286446005105972,1.0,0.5283058881759644,0.8700000047683716,0.0005000000237487257
0.005009237676858902,1.0,0.49443453550338745,0.8799999952316284,0.0005000000237487257
0.0027956077829003334,1.0,0.4622049331665039,0.8899999856948853,0.0005000000237487257
0.003307030536234379,1.0,0.4410981833934784,0.8999999761581421,0.0005000000237487257
0.009909888729453087,1.0,0.4199470579624176,0.8999999761581421,0.0005000000237487257
0.006940509658306837,1.0,0.4300824999809265,0.8899999856948853,0.0005000000237487257
0.003414284670725465,1.0,0.46793827414512634,0.8799999952316284,0.0005000000237487257
0.002127560321241617,1.0,0.4709620773792267,0.8799999952316284,0.0005000000237487257
0.0029623680748045444,1.0,0.4640020728111267,0.8799999952316284,0.0005000000237487257
0.0029446608386933804,1.0,0.45020171999931335,0.8999999761581421,0.0005000000237487257
0.026642264798283577,1.0,2.1790881156921387,0.7099999785423279,0.0005000000237487257
0.009836391545832157,1.0,2.069791316986084,0.7099999785423279,0.0005000000237487257
0.010763710364699364,1.0,0.8269903063774109,0.8199999928474426,0.0005000000237487257
0.01036984845995903,1.0,0.518964409828186,0.8799999952316284,0.0005000000237487257
0.010885234922170639,1.0,0.44769927859306335,0.8600000143051147,0.0005000000237487257
0.005715478677302599,1.0,0.6500879526138306,0.8399999737739563,0.0005000000237487257
0.008204367011785507,1.0,0.6049814820289612,0.8600000143051147,0.0005000000237487257
0.0028753236401826143,1.0,0.48062095046043396,0.8700000047683716,0.0005000000237487257
0.0020108725875616074,1.0,0.43655943870544434,0.8500000238418579,0.0005000000237487257
0.0025348756462335587,1.0,0.4173690378665924,0.8500000238418579,0.0005000000237487257
0.002159528434276581,1.0,0.4150594472885132,0.8799999952316284,0.0005000000237487257
0.00174692552536726,1.0,0.41637489199638367,0.8799999952316284,0.0005000000237487257
0.002763081807643175,1.0,0.4159279763698578,0.8799999952316284,0.0005000000237487257
0.0016600672388449311,1.0,0.41425883769989014,0.8899999856948853,0.0005000000237487257
0.002266043797135353,1.0,0.4212862253189087,0.8899999856948853,0.0005000000237487257
0.0034898906014859676,1.0,0.42610129714012146,0.8899999856948853,0.0005000000237487257
0.004658033140003681,1.0,0.4293154776096344,0.8899999856948853,0.0005000000237487257
0.0008690445101819932,1.0,0.45348700881004333,0.8799999952316284,0.0005000000237487257
0.003544299863278866,1.0,0.47855889797210693,0.8799999952316284,0.0005000000237487257
0.005176423583179712,1.0,0.5007432103157043,0.8799999952316284,0.0005000000237487257
0.0023584368173033,1.0,0.4824494421482086,0.8899999856948853,0.0005000000237487257
0.001406212104484439,1.0,0.4728076159954071,0.8899999856948853,0.0005000000237487257
0.0014722204068675637,1.0,0.4650050699710846,0.8799999952316284,0.0005000000237487257
0.0012264347169548273,1.0,0.4623960256576538,0.8799999952316284,0.0005000000237487257
0.001505978056229651,1.0,0.45455852150917053,0.8899999856948853,0.0005000000237487257
0.003915390465408564,1.0,0.46314942836761475,0.8899999856948853,0.0005000000237487257
0.0017987750470638275,1.0,0.4721435308456421,0.8899999856948853,0.0005000000237487257
0.003790096379816532,1.0,0.5046485066413879,0.8799999952316284,0.0005000000237487257
0.008921166881918907,1.0,0.469650536775589,0.8799999952316284,0.0005000000237487257
0.0021186841186136007,1.0,0.499650776386261,0.8700000047683716,0.0005000000237487257
0.001867124461568892,1.0,0.5024631023406982,0.8799999952316284,0.0005000000237487257
0.001709063071757555,1.0,0.49884337186813354,0.8799999952316284,0.0005000000237487257
0.0029977166559547186,1.0,0.4728764593601227,0.8799999952316284,0.0005000000237487257
0.0013464991934597492,1.0,0.4720277488231659,0.8899999856948853,0.0005000000237487257
0.0007610012544319034,1.0,0.4758058190345764,0.8899999856948853,0.0005000000237487257
0.001248495769686997,1.0,0.4813499450683594,0.8799999952316284,0.0005000000237487257
0.001206996850669384,1.0,0.4856472909450531,0.8799999952316284,0.0005000000237487257
0.001749343704432249,1.0,0.4922839403152466,0.8799999952316284,0.0005000000237487257
0.001589977997355163,1.0,0.502184271812439,0.8799999952316284,0.0005000000237487257
0.0017186790937557817,1.0,0.5064501762390137,0.8799999952316284,0.0005000000237487257
0.0010955994948744774,1.0,0.5043384432792664,0.8799999952316284,0.0005000000237487257
0.0055666049011051655,1.0,0.5084901452064514,0.8799999952316284,0.0005000000237487257
0.0049174171872437,1.0,0.5014802813529968,0.8799999952316284,0.0005000000237487257
0.0014730882830917835,1.0,0.49821412563323975,0.8799999952316284,0.0005000000237487257
0.005174973513931036,1.0,0.5140491724014282,0.8799999952316284,0.0005000000237487257
0.011258427053689957,1.0,0.5459508895874023,0.8600000143051147,0.0005000000237487257
0.0008358165505342185,1.0,0.512152910232544,0.8600000143051147,0.0005000000237487257
0.002548651769757271,1.0,0.48254355788230896,0.8600000143051147,0.0005000000237487257
0.0017169452039524913,1.0,0.4746657609939575,0.8600000143051147,0.0005000000237487257
0.0020967128220945597,1.0,0.4937964379787445,0.8600000143051147,0.0005000000237487257
0.007578792050480843,1.0,0.47150301933288574,0.8899999856948853,0.0005000000237487257
0.0037088727112859488,1.0,0.49517622590065,0.8899999856948853,0.0005000000237487257
0.002269471064209938,1.0,0.498828649520874,0.8799999952316284,0.0005000000237487257
0.0010865863878279924,1.0,0.48480579257011414,0.8799999952316284,0.0005000000237487257
0.0015926402993500233,1.0,0.47169455885887146,0.8899999856948853,0.0005000000237487257
0.0035248033236712217,1.0,0.475801020860672,0.8899999856948853,0.0005000000237487257
0.001543874153867364,1.0,0.48270973563194275,0.8799999952316284,0.0005000000237487257
0.0008015830535441637,1.0,0.4846595823764801,0.8799999952316284,0.0005000000237487257
0.0011834274046123028,1.0,0.4862399995326996,0.8799999952316284,0.0005000000237487257
0.0006900129374116659,1.0,0.48707059025764465,0.8799999952316284,0.0005000000237487257
0.0010186213767156005,1.0,0.48580479621887207,0.8799999952316284,0.0005000000237487257
0.0005849909503012896,1.0,0.48456138372421265,0.8799999952316284,0.0005000000237487257
0.0017366480315104127,1.0,0.4842369556427002,0.8799999952316284,0.0005000000237487257
0.0019091201247647405,1.0,0.49489501118659973,0.8799999952316284,0.0005000000237487257
0.0019964068196713924,1.0,0.5271671414375305,0.8799999952316284,0.0005000000237487257
0.0020148626063019037,1.0,0.5249344706535339,0.8799999952316284,0.0005000000237487257
0.0010258216643705964,1.0,0.5096063017845154,0.8799999952316284,0.0005000000237487257
0.003104872303083539,1.0,0.5090619921684265,0.8799999952316284,0.0005000000237487257
0.0026396450120955706,1.0,0.5040759444236755,0.8799999952316284,0.0005000000237487257
0.004204271826893091,1.0,0.5067674517631531,0.8899999856948853,0.0005000000237487257
0.0027389333117753267,1.0,0.5936439037322998,0.8600000143051147,0.0005000000237487257
0.000916146906092763,1.0,0.6120122671127319,0.8700000047683716,0.0005000000237487257
0.0008440114324912429,1.0,0.5691931247711182,0.8600000143051147,0.0005000000237487257
0.0014952513156458735,1.0,0.5486001372337341,0.8799999952316284,0.0005000000237487257
0.0008571107755415142,1.0,0.5274710655212402,0.8799999952316284,0.0005000000237487257
0.00038128456799313426,1.0,0.5145717859268188,0.8799999952316284,0.0005000000237487257
0.002700899261981249,1.0,0.5423867702484131,0.8899999856948853,0.0005000000237487257
0.001961235422641039,1.0,0.631971001625061,0.8700000047683716,0.0005000000237487257
0.0003785387089010328,1.0,0.6293731927871704,0.8700000047683716,0.0005000000237487257
0.000726426369510591,1.0,0.5957205295562744,0.8700000047683716,0.0005000000237487257
0.0011823181994259357,1.0,0.5403252243995667,0.8899999856948853,0.0005000000237487257
0.0006587866228073835,1.0,0.5113269090652466,0.8799999952316284,0.0005000000237487257
0.0007169161690399051,1.0,0.506716251373291,0.8700000047683716,0.0005000000237487257
0.0024585602805018425,1.0,0.5106857419013977,0.8700000047683716,0.0005000000237487257
0.003279164433479309,1.0,0.5036163926124573,0.8700000047683716,0.0005000000237487257
0.0015787004958838224,1.0,0.4895492494106293,0.8600000143051147,0.0005000000237487257
0.0024395298678427935,1.0,0.4775877296924591,0.8899999856948853,0.0005000000237487257
0.0007196883670985699,1.0,0.4810675382614136,0.8899999856948853,0.0005000000237487257
0.001267760992050171,1.0,0.48471659421920776,0.8899999856948853,0.0005000000237487257
0.0010458431206643581,1.0,0.4801084101200104,0.8899999856948853,0.0005000000237487257
0.0005954473163001239,1.0,0.48139557242393494,0.8899999856948853,0.0005000000237487257
0.0007299418211914599,1.0,0.4865396022796631,0.8899999856948853,0.0005000000237487257
0.0006827525794506073,1.0,0.48966991901397705,0.8899999856948853,0.0005000000237487257
0.0004673146759159863,1.0,0.49377959966659546,0.8899999856948853,0.0005000000237487257
0.0024113485123962164,1.0,0.514693558216095,0.8899999856948853,0.0005000000237487257
0.00036579801235347986,1.0,0.5252894759178162,0.8799999952316284,0.0005000000237487257
0.0009734269697219133,1.0,0.5235119462013245,0.8799999952316284,0.0005000000237487257
0.0011964227305725217,1.0,0.5219756960868835,0.8799999952316284,0.0005000000237487257
0.001442554290406406,1.0,0.5386335849761963,0.8799999952316284,0.0005000000237487257
0.0007138068322092295,1.0,0.522939920425415,0.8799999952316284,0.0005000000237487257
0.0008190229418687522,1.0,0.5225152373313904,0.8799999952316284,0.0005000000237487257
0.0005811688024550676,1.0,0.5125901699066162,0.8799999952316284,0.0005000000237487257
0.0011133304797112942,1.0,0.5021851658821106,0.8899999856948853,0.0005000000237487257
0.0004173983761575073,1.0,0.5049175024032593,0.8899999856948853,0.0005000000237487257
0.0009259541402570903,1.0,0.5148451924324036,0.8799999952316284,0.0005000000237487257
0.001524624414741993,1.0,0.5285157561302185,0.8799999952316284,0.0005000000237487257
0.002068280940875411,1.0,0.5354241728782654,0.8799999952316284,0.0005000000237487257
0.0008840935188345611,1.0,0.5313016176223755,0.8899999856948853,0.0005000000237487257
0.005854840390384197,1.0,0.47473621368408203,0.8899999856948853,0.0005000000237487257
0.0016774118412286043,1.0,0.46804845333099365,0.8899999856948853,0.0005000000237487257
0.0006219041533768177,1.0,0.5022298693656921,0.8799999952316284,0.0005000000237487257
0.0013308700872585177,1.0,0.5261759161949158,0.8799999952316284,0.0005000000237487257
0.00034093193244189024,1.0,0.5377858281135559,0.8899999856948853,0.0005000000237487257
0.000754466513171792,1.0,0.5392492413520813,0.8899999856948853,0.0005000000237487257
0.0007574526825919747,1.0,0.5345353484153748,0.8799999952316284,0.0005000000237487257
0.0006127617671154439,1.0,0.5251176953315735,0.8799999952316284,0.0005000000237487257
0.0005713451537303627,1.0,0.5264578461647034,0.8799999952316284,0.0005000000237487257
0.0005313355359248817,1.0,0.5271128416061401,0.8799999952316284,0.0005000000237487257
0.003171660238876939,1.0,0.5273358225822449,0.8799999952316284,0.0005000000237487257
0.0006680937949568033,1.0,0.5145001411437988,0.8799999952316284,0.0005000000237487257
0.002603324130177498,1.0,0.7284740209579468,0.8700000047683716,0.0005000000237487257
0.000459018861874938,1.0,0.7799023389816284,0.8500000238418579,0.0005000000237487257
0.0004345612833276391,1.0,0.7137241959571838,0.8700000047683716,0.0005000000237487257
0.0022242041304707527,1.0,0.6644802093505859,0.8700000047683716,0.0005000000237487257
0.0003371788188815117,1.0,0.6478186845779419,0.8799999952316284,0.0005000000237487257
0.0009527142392471433,1.0,0.6004433035850525,0.8799999952316284,0.0005000000237487257
0.0003911721578333527,1.0,0.5719896554946899,0.8799999952316284,0.0002500000118743628
0.0037248358130455017,1.0,0.5348508954048157,0.8799999952316284,0.0002500000118743628
0.00036082646693103015,1.0,0.5011155605316162,0.8700000047683716,0.0002500000118743628
0.002612457610666752,1.0,0.5228850245475769,0.8799999952316284,0.0002500000118743628
0.007656646426767111,1.0,0.47313350439071655,0.8600000143051147,0.0002500000118743628
0.002557199914008379,1.0,0.47921493649482727,0.8500000238418579,0.0002500000118743628
0.0018835109658539295,1.0,0.48488476872444153,0.8600000143051147,0.0002500000118743628
0.0012681379448622465,1.0,0.4882618188858032,0.8600000143051147,0.0002500000118743628
0.005395097658038139,1.0,0.5554631948471069,0.8799999952316284,0.0002500000118743628
0.0008567084441892803,1.0,0.6567155718803406,0.8899999856948853,0.0002500000118743628
0.001214846852235496,1.0,0.6740511059761047,0.8899999856948853,0.0002500000118743628
0.001652587903663516,1.0,0.6144853830337524,0.8899999856948853,0.0002500000118743628
0.0012162772472947836,1.0,0.5543127059936523,0.8799999952316284,0.0002500000118743628
0.0005577857955358922,1.0,0.5402286052703857,0.8700000047683716,0.0002500000118743628
0.0013843630440533161,1.0,0.5351458787918091,0.8799999952316284,0.0002500000118743628
0.0016759915743023157,1.0,0.5279627442359924,0.8799999952316284,0.0002500000118743628
0.0004821691254619509,1.0,0.5270780920982361,0.8899999856948853,0.0002500000118743628
0.0015541177708655596,1.0,0.5268621444702148,0.8899999856948853,0.0002500000118743628
0.001157499966211617,1.0,0.5288841128349304,0.8899999856948853,0.0002500000118743628
0.00046550322440452874,1.0,0.5273911356925964,0.8899999856948853,0.0002500000118743628
0.001481702784076333,1.0,0.533883810043335,0.8899999856948853,0.0002500000118743628
0.0004401643527671695,1.0,0.5416997671127319,0.8799999952316284,0.0002500000118743628
0.00024892427609302104,1.0,0.5453994274139404,0.8799999952316284,0.0002500000118743628
0.0004646490851882845,1.0,0.5454013347625732,0.8799999952316284,0.0002500000118743628
0.0007329961517825723,1.0,0.5480194687843323,0.8799999952316284,0.0002500000118743628
0.0004297511768527329,1.0,0.5443682670593262,0.8799999952316284,0.0002500000118743628
0.0007626026635989547,1.0,0.5421526432037354,0.8799999952316284,0.0002500000118743628
0.0007473514997400343,1.0,0.5380868315696716,0.8799999952316284,0.0002500000118743628
0.0004250438651069999,1.0,0.5380016565322876,0.8799999952316284,0.0002500000118743628
0.000528460368514061,1.0,0.5377246737480164,0.8799999952316284,0.0002500000118743628
0.0004003404756076634,1.0,0.5390318036079407,0.8799999952316284,0.0002500000118743628
0.0004304052272345871,1.0,0.5440199375152588,0.8799999952316284,0.0002500000118743628
0.0006352831260301173,1.0,0.5456656813621521,0.8799999952316284,0.0002500000118743628
0.0002984943857882172,1.0,0.543563723564148,0.8799999952316284,0.0002500000118743628
0.0009667443227954209,1.0,0.5468262434005737,0.8799999952316284,0.0002500000118743628
0.000535809260327369,1.0,0.5568769574165344,0.8899999856948853,0.0002500000118743628
0.0005882254336029291,1.0,0.561792254447937,0.8899999856948853,0.0002500000118743628
0.0006236851331777871,1.0,0.564629077911377,0.8899999856948853,0.0002500000118743628
0.0008428384899161756,1.0,0.5746245384216309,0.8899999856948853,0.0002500000118743628
0.000322249747114256,1.0,0.5740755796432495,0.8899999856948853,0.0002500000118743628
0.0005678064189851284,1.0,0.5720455646514893,0.8899999856948853,0.0002500000118743628
0.0012188254622742534,1.0,0.578681230545044,0.8899999856948853,0.0002500000118743628
0.0002658550802152604,1.0,0.57850581407547,0.8799999952316284,0.0002500000118743628
0.0008466216386295855,1.0,0.5709007382392883,0.8899999856948853,0.0002500000118743628
0.00028491884586401284,1.0,0.5592186450958252,0.8799999952316284,0.0002500000118743628
0.00039291850407607853,1.0,0.5561107397079468,0.8799999952316284,0.0002500000118743628
0.0004451031272765249,1.0,0.5547049045562744,0.8799999952316284,0.0002500000118743628
0.0006893615354783833,1.0,0.5581831932067871,0.8799999952316284,0.0002500000118743628
0.00034592614974826574,1.0,0.559626579284668,0.8799999952316284,0.0002500000118743628
0.0002770980354398489,1.0,0.5624850988388062,0.8799999952316284,0.0002500000118743628
0.0005342824733816087,1.0,0.5603909492492676,0.8799999952316284,0.0002500000118743628
0.00028363591991364956,1.0,0.5559503436088562,0.8799999952316284,0.0002500000118743628
0.000435316760558635,1.0,0.5566446781158447,0.8799999952316284,0.0002500000118743628
0.0004236683598719537,1.0,0.5579774975776672,0.8799999952316284,0.0002500000118743628
0.0009153616265393794,1.0,0.5591253638267517,0.8799999952316284,0.0002500000118743628
0.00034983790828846395,1.0,0.560985267162323,0.8799999952316284,0.0002500000118743628
0.0008376107434742153,1.0,0.5575752854347229,0.8799999952316284,0.0002500000118743628
0.00031611722079105675,1.0,0.5564056038856506,0.8799999952316284,0.0002500000118743628
0.0003234473988413811,1.0,0.555111825466156,0.8799999952316284,0.0002500000118743628
0.00020377140026539564,1.0,0.5535029768943787,0.8799999952316284,0.0002500000118743628
0.0027651777490973473,1.0,0.5586704611778259,0.8799999952316284,0.0002500000118743628
0.0006613680743612349,1.0,0.5674216747283936,0.8899999856948853,0.0002500000118743628
0.0007184712449088693,1.0,0.5628899931907654,0.8899999856948853,0.0002500000118743628
0.0004904356319457293,1.0,0.5642256736755371,0.8899999856948853,0.0002500000118743628
0.0006714836345054209,1.0,0.5676197409629822,0.8899999856948853,0.0002500000118743628
0.0005990206263959408,1.0,0.5717244744300842,0.8899999856948853,0.0002500000118743628
0.0004363951156847179,1.0,0.568645179271698,0.8799999952316284,0.0002500000118743628
0.0005136465188115835,1.0,0.5746129751205444,0.8799999952316284,0.0002500000118743628
0.0003690141311381012,1.0,0.5719737410545349,0.8799999952316284,0.0002500000118743628
0.00047170332982204854,1.0,0.5683425664901733,0.8799999952316284,0.0002500000118743628
0.001246655941940844,1.0,0.5750995874404907,0.8899999856948853,0.0002500000118743628
0.0008271666592918336,1.0,0.5673280358314514,0.8799999952316284,0.0002500000118743628
0.0008206357597373426,1.0,0.5739604234695435,0.8799999952316284,0.0002500000118743628
0.0010016447631642222,1.0,0.5707181692123413,0.8799999952316284,0.0001250000059371814
0.000484935415443033,1.0,0.5631336569786072,0.8799999952316284,0.0001250000059371814
0.0005465921713039279,1.0,0.5605805516242981,0.8799999952316284,0.0001250000059371814
0.0002297663886565715,1.0,0.5587148070335388,0.8799999952316284,0.0001250000059371814
0.0025469993706792593,1.0,0.5718385577201843,0.8799999952316284,0.0001250000059371814
0.00042202911572530866,1.0,0.5798389315605164,0.8799999952316284,0.0001250000059371814
0.00014890768215991557,1.0,0.5804833769798279,0.8799999952316284,0.0001250000059371814
0.0016338389832526445,1.0,0.5871415734291077,0.8799999952316284,0.0001250000059371814
0.0002537005639169365,1.0,0.59309321641922,0.8799999952316284,0.0001250000059371814
0.0010497748153284192,1.0,0.5881190299987793,0.8799999952316284,0.0001250000059371814
0.0009534362470731139,1.0,0.5752991437911987,0.8799999952316284,0.0001250000059371814
0.0005732753197662532,1.0,0.5685721039772034,0.8799999952316284,0.0001250000059371814
0.0005047552986070514,1.0,0.5644704699516296,0.8799999952316284,0.0001250000059371814
0.0013392581604421139,1.0,0.568418025970459,0.8799999952316284,0.0001250000059371814
0.00027876533567905426,1.0,0.5730240941047668,0.8899999856948853,0.0001250000059371814
0.0006612095166929066,1.0,0.5725711584091187,0.8899999856948853,0.0001250000059371814
0.0010405300417914987,1.0,0.5739726424217224,0.8899999856948853,0.0001250000059371814
0.0010427706874907017,1.0,0.5733775496482849,0.8899999856948853,0.0001250000059371814
0.0003855352115351707,1.0,0.5771907567977905,0.8899999856948853,0.0001250000059371814
0.000265730224782601,1.0,0.575589120388031,0.8899999856948853,0.0001250000059371814
0.00019348973000887781,1.0,0.5732372999191284,0.8799999952316284,0.0001250000059371814
0.000252191792242229,1.0,0.5702930688858032,0.8799999952316284,0.0001250000059371814
0.0004856038431171328,1.0,0.5678514242172241,0.8799999952316284,0.0001250000059371814
0.000491882034111768,1.0,0.5668060779571533,0.8799999952316284,0.0001250000059371814
0.00037424781476147473,1.0,0.5665399432182312,0.8799999952316284,0.0001250000059371814
0.00021075319091323763,1.0,0.5655962228775024,0.8799999952316284,0.0001250000059371814
0.00026578304823487997,1.0,0.5648427605628967,0.8799999952316284,0.0001250000059371814
0.0005150678916834295,1.0,0.5665613412857056,0.8799999952316284,0.0001250000059371814
0.00028034462593495846,1.0,0.5674680471420288,0.8799999952316284,0.0001250000059371814
0.0005178849096409976,1.0,0.569110095500946,0.8799999952316284,0.0001250000059371814
0.00028123255469836295,1.0,0.5701139569282532,0.8799999952316284,0.0001250000059371814
0.0006077474099583924,1.0,0.5697106719017029,0.8799999952316284,0.0001250000059371814
0.00021322042448446155,1.0,0.5706606507301331,0.8799999952316284,0.0001250000059371814
0.00019833185069728643,1.0,0.5711071491241455,0.8799999952316284,0.0001250000059371814
0.00018311254098080099,1.0,0.5707671046257019,0.8799999952316284,0.0001250000059371814
0.0002292716089868918,1.0,0.5685566663742065,0.8799999952316284,0.0001250000059371814
0.0003456449194345623,1.0,0.5669370889663696,0.8799999952316284,0.0001250000059371814
0.0005579291027970612,1.0,0.5695290565490723,0.8799999952316284,0.0001250000059371814
0.0011745535302907228,1.0,0.5745261311531067,0.8799999952316284,0.0001250000059371814
0.000556938408408314,1.0,0.5805092453956604,0.8799999952316284,0.0001250000059371814
0.0002615209959913045,1.0,0.5810294151306152,0.8799999952316284,0.0001250000059371814
0.00017498285160399973,1.0,0.5799362659454346,0.8799999952316284,0.0001250000059371814
0.00048040971159935,1.0,0.5799133777618408,0.8799999952316284,0.0001250000059371814
0.0006448536878451705,1.0,0.5831952095031738,0.8799999952316284,0.0001250000059371814
0.0002428123407298699,1.0,0.5871479511260986,0.8799999952316284,0.0001250000059371814
0.0009588186512701213,1.0,0.5888140201568604,0.8799999952316284,0.0001250000059371814
0.0020336403977125883,1.0,0.5978973507881165,0.8799999952316284,0.0001250000059371814
0.000175298991962336,1.0,0.6105941534042358,0.8799999952316284,0.0001250000059371814
0.0009424719028174877,1.0,0.6075010299682617,0.8799999952316284,0.0001250000059371814
0.000647650973405689,1.0,0.5953071713447571,0.8899999856948853,0.0001250000059371814
0.0006682041566818953,1.0,0.5905244946479797,0.8799999952316284,0.0001250000059371814
0.0011285372311249375,1.0,0.5870813131332397,0.8799999952316284,0.0001250000059371814
0.00043180823558941483,1.0,0.592602550983429,0.8899999856948853,0.0001250000059371814
0.00027769955340772867,1.0,0.5873622894287109,0.8899999856948853,0.0001250000059371814
0.0004940817016176879,1.0,0.58101487159729,0.8799999952316284,0.0001250000059371814
0.0003217743360437453,1.0,0.57733154296875,0.8799999952316284,0.0001250000059371814
0.0005574264214374125,1.0,0.5753039121627808,0.8799999952316284,0.0001250000059371814
0.0006976819131523371,1.0,0.5708494782447815,0.8799999952316284,9.999999747378752e-05
0.0002439262461848557,1.0,0.568702220916748,0.8799999952316284,9.999999747378752e-05
0.00045389420120045543,1.0,0.5691772699356079,0.8799999952316284,9.999999747378752e-05
0.0005172599921934307,1.0,0.5674710869789124,0.8799999952316284,9.999999747378752e-05
0.0009760443354025483,1.0,0.5718810558319092,0.8799999952316284,9.999999747378752e-05
0.0003637025074567646,1.0,0.5834777355194092,0.8799999952316284,9.999999747378752e-05
0.001143809175118804,1.0,0.5810275077819824,0.8799999952316284,9.999999747378752e-05
0.0007944800890982151,1.0,0.5779998898506165,0.8799999952316284,9.999999747378752e-05
0.00012079380394425243,1.0,0.5748822689056396,0.8799999952316284,9.999999747378752e-05
0.00042733532609418035,1.0,0.5688866376876831,0.8799999952316284,9.999999747378752e-05
0.0001808453380363062,1.0,0.5664563775062561,0.8799999952316284,9.999999747378752e-05
0.00046693324111402035,1.0,0.5653302669525146,0.8799999952316284,9.999999747378752e-05
0.0011933388886973262,1.0,0.5648118853569031,0.8799999952316284,9.999999747378752e-05
0.0005316257011145353,1.0,0.5647544264793396,0.8799999952316284,9.999999747378752e-05
0.0006090679671615362,1.0,0.5626973509788513,0.8799999952316284,9.999999747378752e-05
0.00024247921828646213,1.0,0.5591090321540833,0.8799999952316284,9.999999747378752e-05
0.0016191399190574884,1.0,0.5691542029380798,0.8799999952316284,9.999999747378752e-05
0.0004424409125931561,1.0,0.5811784267425537,0.8799999952316284,9.999999747378752e-05
0.002700274810194969,1.0,0.5867542028427124,0.8799999952316284,9.999999747378752e-05
0.00021867937175557017,1.0,0.5862063765525818,0.8799999952316284,9.999999747378752e-05
0.002386566950008273,1.0,0.591424286365509,0.8799999952316284,9.999999747378752e-05
0.0004028147377539426,1.0,0.5976588726043701,0.8799999952316284,9.999999747378752e-05
0.0014253448462113738,1.0,0.6193079352378845,0.8799999952316284,9.999999747378752e-05
0.0015383176505565643,1.0,0.6085386872291565,0.8799999952316284,9.999999747378752e-05
0.0013799836160615087,1.0,0.5930368900299072,0.8700000047683716,9.999999747378752e-05
0.0008373172022402287,1.0,0.5873734951019287,0.8799999952316284,9.999999747378752e-05
0.0005166984628885984,1.0,0.589389979839325,0.8799999952316284,9.999999747378752e-05
0.00029786693630740047,1.0,0.5879942178726196,0.8799999952316284,9.999999747378752e-05
0.001634711166843772,1.0,0.5828767418861389,0.8799999952316284,9.999999747378752e-05
0.0005276420852169394,1.0,0.5775370597839355,0.8799999952316284,9.999999747378752e-05
0.0005483636050485075,1.0,0.576313853263855,0.8799999952316284,9.999999747378752e-05
0.00023409845016431063,1.0,0.5741311311721802,0.8799999952316284,9.999999747378752e-05
0.00045602337922900915,1.0,0.5670742988586426,0.8799999952316284,9.999999747378752e-05
0.0001725534093566239,1.0,0.5653628706932068,0.8799999952316284,9.999999747378752e-05
0.00011324297520332038,1.0,0.5646495819091797,0.8799999952316284,9.999999747378752e-05
0.00031336594838649035,1.0,0.564620316028595,0.8799999952316284,9.999999747378752e-05
0.000286463851807639,1.0,0.5643788576126099,0.8799999952316284,9.999999747378752e-05
0.0003133971185889095,1.0,0.5660285949707031,0.8799999952316284,9.999999747378752e-05
0.0003908040816895664,1.0,0.5670945048332214,0.8799999952316284,9.999999747378752e-05
0.00022802826424594969,1.0,0.5677655935287476,0.8799999952316284,9.999999747378752e-05
0.00027828424936160445,1.0,0.5692054033279419,0.8799999952316284,9.999999747378752e-05
0.001409928547218442,1.0,0.5797088146209717,0.8799999952316284,9.999999747378752e-05
0.0002742115466389805,1.0,0.5861081480979919,0.8799999952316284,9.999999747378752e-05
0.00017517199739813805,1.0,0.5854792594909668,0.8799999952316284,9.999999747378752e-05
0.0003115276631433517,1.0,0.5844255089759827,0.8799999952316284,9.999999747378752e-05
0.00018609003745950758,1.0,0.5821020007133484,0.8799999952316284,9.999999747378752e-05
0.0002980911231134087,1.0,0.5798161029815674,0.8799999952316284,9.999999747378752e-05
0.000783432275056839,1.0,0.5725706219673157,0.8799999952316284,9.999999747378752e-05
0.0011591654038056731,1.0,0.5733444690704346,0.8799999952316284,9.999999747378752e-05
0.0007375385030172765,1.0,0.5835537910461426,0.8799999952316284,9.999999747378752e-05
0.00032656730036251247,1.0,0.5954093337059021,0.8799999952316284,9.999999747378752e-05
0.000488775665871799,1.0,0.5999211668968201,0.8799999952316284,9.999999747378752e-05
0.0005164181347936392,1.0,0.5999200344085693,0.8799999952316284,9.999999747378752e-05
0.0003988993994425982,1.0,0.5975873470306396,0.8799999952316284,9.999999747378752e-05
0.00074059545295313,1.0,0.5990186333656311,0.8799999952316284,9.999999747378752e-05
0.0011108185863122344,1.0,0.5975505709648132,0.8799999952316284,9.999999747378752e-05
0.0005849965382367373,1.0,0.6086423397064209,0.8899999856948853,9.999999747378752e-05
0.00016114326717797667,1.0,0.6102147102355957,0.8899999856948853,9.999999747378752e-05
0.0006003884482197464,1.0,0.6054846048355103,0.8799999952316284,9.999999747378752e-05
0.0003805174201261252,1.0,0.5931627154350281,0.8799999952316284,9.999999747378752e-05
0.0013739005662500858,1.0,0.6068697571754456,0.8799999952316284,9.999999747378752e-05
0.001020508469082415,1.0,0.6129761934280396,0.8799999952316284,9.999999747378752e-05
0.0001400188048137352,1.0,0.6109619736671448,0.8799999952316284,9.999999747378752e-05
0.0005580354481935501,1.0,0.6103515028953552,0.8799999952316284,9.999999747378752e-05
0.00017266179202124476,1.0,0.6102660298347473,0.8799999952316284,9.999999747378752e-05
0.0005755028687417507,1.0,0.6032436490058899,0.8799999952316284,9.999999747378752e-05
0.00036730989813804626,1.0,0.5947316884994507,0.8799999952316284,9.999999747378752e-05
0.0002097795222653076,1.0,0.5893187522888184,0.8799999952316284,9.999999747378752e-05
0.00024171924451366067,1.0,0.585757315158844,0.8799999952316284,9.999999747378752e-05
0.009599292650818825,1.0,0.5091170072555542,0.8799999952316284,9.999999747378752e-05
0.018268322572112083,1.0,0.6672755479812622,0.8199999928474426,9.999999747378752e-05
0.001312206033617258,1.0,0.6970394253730774,0.8299999833106995,9.999999747378752e-05
0.016682881861925125,1.0,0.6779744625091553,0.8799999952316284,9.999999747378752e-05
0.005579465534538031,1.0,0.49925094842910767,0.8500000238418579,9.999999747378752e-05
0.0025490247644484043,1.0,0.5334845781326294,0.8500000238418579,9.999999747378752e-05
0.0026550365146249533,1.0,0.6231735348701477,0.8500000238418579,9.999999747378752e-05
0.0025064749643206596,1.0,0.7048060894012451,0.8600000143051147,9.999999747378752e-05
0.0010485362727195024,1.0,0.7131856679916382,0.8500000238418579,9.999999747378752e-05
0.0004025704402010888,1.0,0.6831436157226562,0.8600000143051147,9.999999747378752e-05
0.001153165358118713,1.0,0.6562178134918213,0.8600000143051147,9.999999747378752e-05
0.000524726347066462,1.0,0.6396645903587341,0.8600000143051147,9.999999747378752e-05
0.0008756575989536941,1.0,0.6170575618743896,0.8600000143051147,9.999999747378752e-05
0.0027212966233491898,1.0,0.5883083939552307,0.8700000047683716,9.999999747378752e-05
0.0005743927322328091,1.0,0.5546153783798218,0.8799999952316284,9.999999747378752e-05
0.000839226646348834,1.0,0.547015368938446,0.8799999952316284,9.999999747378752e-05
0.0009113244013860822,1.0,0.5488312244415283,0.8799999952316284,9.999999747378752e-05
0.0004155223723500967,1.0,0.5509619116783142,0.8799999952316284,9.999999747378752e-05
0.0006171338027343154,1.0,0.5553774833679199,0.8799999952316284,9.999999747378752e-05
0.0007277123513631523,1.0,0.5540153980255127,0.8799999952316284,9.999999747378752e-05
0.0009704665280878544,1.0,0.5579258799552917,0.8799999952316284,9.999999747378752e-05
0.0022458736784756184,1.0,0.5682670474052429,0.8799999952316284,9.999999747378752e-05
0.0004142650868743658,1.0,0.5672244429588318,0.8799999952316284,9.999999747378752e-05
0.0006413154187612236,1.0,0.5593225955963135,0.8799999952316284,9.999999747378752e-05
0.0005067235324531794,1.0,0.5564491152763367,0.8799999952316284,9.999999747378752e-05
0.000710250751581043,1.0,0.5521060228347778,0.8799999952316284,9.999999747378752e-05
0.0007358699222095311,1.0,0.5545513033866882,0.8799999952316284,9.999999747378752e-05
0.0013243607245385647,1.0,0.5668440461158752,0.8799999952316284,9.999999747378752e-05
0.0005338284536264837,1.0,0.5635717511177063,0.8799999952316284,9.999999747378752e-05
0.0002004124253289774,1.0,0.5612422227859497,0.8799999952316284,9.999999747378752e-05
0.0006216952460817993,1.0,0.5624833106994629,0.8799999952316284,9.999999747378752e-05
0.0002931932103820145,1.0,0.5618141889572144,0.8799999952316284,9.999999747378752e-05
0.0003298357769381255,1.0,0.5605702996253967,0.8799999952316284,9.999999747378752e-05
0.0003935298591386527,1.0,0.5603809356689453,0.8799999952316284,9.999999747378752e-05
0.0011870679445564747,1.0,0.5595548152923584,0.8799999952316284,9.999999747378752e-05
0.00024099965230561793,1.0,0.55869460105896,0.8799999952316284,9.999999747378752e-05
0.0002412985631963238,1.0,0.558216392993927,0.8799999952316284,9.999999747378752e-05
0.0009701241506263614,1.0,0.5570523142814636,0.8799999952316284,9.999999747378752e-05
0.0002862730761989951,1.0,0.5538336634635925,0.8899999856948853,9.999999747378752e-05
0.0002305917878402397,1.0,0.553982138633728,0.8899999856948853,9.999999747378752e-05
0.00029322796035557985,1.0,0.555854856967926,0.8899999856948853,9.999999747378752e-05
0.0005838589277118444,1.0,0.5612394213676453,0.8899999856948853,9.999999747378752e-05
0.0004900377243757248,1.0,0.5600355863571167,0.8899999856948853,9.999999747378752e-05
0.0013785074697807431,1.0,0.5639432668685913,0.8799999952316284,9.999999747378752e-05
0.00044682330917567015,1.0,0.5695133805274963,0.8799999952316284,9.999999747378752e-05
0.0006010725628584623,1.0,0.5676941871643066,0.8799999952316284,9.999999747378752e-05
0.0008155428804457188,1.0,0.5663155913352966,0.8799999952316284,9.999999747378752e-05
0.00020513901836238801,1.0,0.5688567757606506,0.8799999952316284,9.999999747378752e-05
0.00016986679111141711,1.0,0.5698256492614746,0.8799999952316284,9.999999747378752e-05
0.0002043163840426132,1.0,0.5694402456283569,0.8799999952316284,9.999999747378752e-05
0.0017554245423525572,1.0,0.5835425853729248,0.8799999952316284,9.999999747378752e-05
0.001649369252845645,1.0,0.6279138922691345,0.8600000143051147,9.999999747378752e-05
0.0018784910207614303,1.0,0.5977919101715088,0.8899999856948853,9.999999747378752e-05
0.0005145791801624,1.0,0.5708191990852356,0.8799999952316284,9.999999747378752e-05
0.00033746674307622015,1.0,0.5633054971694946,0.8799999952316284,9.999999747378752e-05
0.0013916547177359462,1.0,0.5785406231880188,0.8799999952316284,9.999999747378752e-05
0.00048130095819942653,1.0,0.6016339063644409,0.8799999952316284,9.999999747378752e-05
0.0005299670738168061,1.0,0.6056689620018005,0.8899999856948853,9.999999747378752e-05
0.0004219418333377689,1.0,0.6018871665000916,0.8799999952316284,9.999999747378752e-05
0.00033346007694490254,1.0,0.5960837006568909,0.8799999952316284,9.999999747378752e-05
0.0003094302664976567,1.0,0.5898605585098267,0.8799999952316284,9.999999747378752e-05
0.001169172115623951,1.0,0.5864550471305847,0.8799999952316284,9.999999747378752e-05
0.0004901795764453709,1.0,0.5841760635375977,0.8799999952316284,9.999999747378752e-05
0.0004089309659320861,1.0,0.5852586627006531,0.8799999952316284,9.999999747378752e-05
0.0002036996593233198,1.0,0.5824270844459534,0.8799999952316284,9.999999747378752e-05
0.00011916086077690125,1.0,0.5802746415138245,0.8799999952316284,9.999999747378752e-05
0.0008660390158183873,1.0,0.5792115926742554,0.8799999952316284,9.999999747378752e-05
0.0006001107394695282,1.0,0.579699695110321,0.8799999952316284,9.999999747378752e-05
0.00017817303887568414,1.0,0.5708501935005188,0.8799999952316284,9.999999747378752e-05
0.00037544697988778353,1.0,0.565936803817749,0.8799999952316284,9.999999747378752e-05
0.0008117497782222927,1.0,0.5654675960540771,0.8799999952316284,9.999999747378752e-05
0.0004007591924164444,1.0,0.5664460062980652,0.8799999952316284,9.999999747378752e-05
0.0002013588382396847,1.0,0.5668495893478394,0.8799999952316284,9.999999747378752e-05
0.0006451547960750759,1.0,0.5714321732521057,0.8799999952316284,9.999999747378752e-05
0.00017467542784288526,1.0,0.5843775272369385,0.8799999952316284,9.999999747378752e-05
0.0004037056933157146,1.0,0.5880700945854187,0.8799999952316284,9.999999747378752e-05
0.00013476685853675008,1.0,0.5876086950302124,0.8799999952316284,9.999999747378752e-05
0.0001929381105583161,1.0,0.5840622186660767,0.8799999952316284,9.999999747378752e-05
0.000365373125532642,1.0,0.5840203166007996,0.8799999952316284,9.999999747378752e-05
0.00020937946101184934,1.0,0.583509087562561,0.8799999952316284,9.999999747378752e-05
0.00024580987519584596,1.0,0.5797117948532104,0.8799999952316284,9.999999747378752e-05
0.001374456682242453,1.0,0.5510246157646179,0.8700000047683716,9.999999747378752e-05
0.00038034733734093606,1.0,0.5431156158447266,0.8700000047683716,9.999999747378752e-05
0.0007470720447599888,1.0,0.5555365681648254,0.8799999952316284,9.999999747378752e-05
0.0002753069857135415,1.0,0.5652090907096863,0.8799999952316284,9.999999747378752e-05
0.0004137835348956287,1.0,0.5722147226333618,0.8799999952316284,9.999999747378752e-05
0.00022433273261412978,1.0,0.5784080028533936,0.8799999952316284,9.999999747378752e-05
0.0003815660020336509,1.0,0.5785973072052002,0.8799999952316284,9.999999747378752e-05
0.0004023330984637141,1.0,0.5769501328468323,0.8799999952316284,9.999999747378752e-05
0.0027101391460746527,1.0,0.5574529767036438,0.8799999952316284,9.999999747378752e-05
0.0005924089346081018,1.0,0.5411189794540405,0.8799999952316284,9.999999747378752e-05
0.0006021214067004621,1.0,0.5480566024780273,0.8799999952316284,9.999999747378752e-05
0.0005844818660989404,1.0,0.5573559403419495,0.8799999952316284,9.999999747378752e-05
0.0002453891793265939,1.0,0.5629634261131287,0.8799999952316284,9.999999747378752e-05
0.0003551948466338217,1.0,0.5635809898376465,0.8799999952316284,9.999999747378752e-05
0.00045962759759277105,1.0,0.5644511580467224,0.8799999952316284,9.999999747378752e-05
0.00023440326913259923,1.0,0.564933717250824,0.8799999952316284,9.999999747378752e-05
0.0004211193008814007,1.0,0.5630740523338318,0.8799999952316284,9.999999747378752e-05
0.0012207062682136893,1.0,0.5828676819801331,0.8799999952316284,9.999999747378752e-05
0.0007962577510625124,1.0,0.599858820438385,0.8899999856948853,9.999999747378752e-05
0.00027439824771136045,1.0,0.6047647595405579,0.8899999856948853,9.999999747378752e-05
0.00030299031641334295,1.0,0.6028056144714355,0.8799999952316284,9.999999747378752e-05
0.00021211276180110872,1.0,0.5976506471633911,0.8799999952316284,9.999999747378752e-05
0.0002825174306053668,1.0,0.5955116748809814,0.8799999952316284,9.999999747378752e-05
0.0002055705845123157,1.0,0.5929615497589111,0.8799999952316284,9.999999747378752e-05
0.0005190044175833464,1.0,0.5958173274993896,0.8799999952316284,9.999999747378752e-05
0.00023771182168275118,1.0,0.5941370725631714,0.8799999952316284,9.999999747378752e-05
0.00031074555590748787,1.0,0.5900838375091553,0.8799999952316284,9.999999747378752e-05
0.0002928578178398311,1.0,0.5889198184013367,0.8799999952316284,9.999999747378752e-05
0.0002986367035191506,1.0,0.5921316742897034,0.8799999952316284,9.999999747378752e-05
0.0008671050309203565,1.0,0.5949988961219788,0.8799999952316284,9.999999747378752e-05
0.000316586229018867,1.0,0.6003490686416626,0.8799999952316284,9.999999747378752e-05
0.00017692653636913747,1.0,0.6013341546058655,0.8799999952316284,9.999999747378752e-05
0.000135216920170933,1.0,0.6011282801628113,0.8799999952316284,9.999999747378752e-05
0.00022999229258857667,1.0,0.5982932448387146,0.8799999952316284,9.999999747378752e-05
0.0006056560087017715,1.0,0.5990824103355408,0.8799999952316284,9.999999747378752e-05
0.00034642842365428805,1.0,0.6132016181945801,0.8799999952316284,9.999999747378752e-05
0.0002507896861061454,1.0,0.6118699908256531,0.8799999952316284,9.999999747378752e-05
0.0002701083431020379,1.0,0.6045576333999634,0.8799999952316284,9.999999747378752e-05
0.0002966198662761599,1.0,0.5993028879165649,0.8799999952316284,9.999999747378752e-05
0.00031261128606274724,1.0,0.5987823009490967,0.8799999952316284,9.999999747378752e-05
0.0008756142342463136,1.0,0.608689546585083,0.8799999952316284,9.999999747378752e-05
0.0009377964306622744,1.0,0.5706543326377869,0.8799999952316284,9.999999747378752e-05
0.00019000738393515348,1.0,0.5614182949066162,0.8700000047683716,9.999999747378752e-05
0.0003098394663538784,1.0,0.562015175819397,0.8799999952316284,9.999999747378752e-05
0.00031733058858662844,1.0,0.5719687342643738,0.8799999952316284,9.999999747378752e-05
0.0004026468377560377,1.0,0.5810487866401672,0.8799999952316284,9.999999747378752e-05
0.00030354465707205236,1.0,0.5876755118370056,0.8799999952316284,9.999999747378752e-05
0.0006078497972339392,1.0,0.5972574353218079,0.8799999952316284,9.999999747378752e-05
0.00015079059812705964,1.0,0.6089715361595154,0.8799999952316284,9.999999747378752e-05
0.00011248442024225369,1.0,0.610848605632782,0.8799999952316284,9.999999747378752e-05
0.0003035769914276898,1.0,0.6061296463012695,0.8799999952316284,9.999999747378752e-05
0.0009439277928322554,1.0,0.6044011116027832,0.8799999952316284,9.999999747378752e-05
0.00020419381326064467,1.0,0.5984632968902588,0.8799999952316284,9.999999747378752e-05
0.0003981555928476155,1.0,0.5955773591995239,0.8799999952316284,9.999999747378752e-05
0.00031044508796185255,1.0,0.594835102558136,0.8799999952316284,9.999999747378752e-05
0.00022721935238223523,1.0,0.5926689505577087,0.8799999952316284,9.999999747378752e-05
0.00022494778386317194,1.0,0.5903323292732239,0.8799999952316284,9.999999747378752e-05
0.00040171018918044865,1.0,0.5943856239318848,0.8799999952316284,9.999999747378752e-05
0.00035243583261035383,1.0,0.5955654382705688,0.8799999952316284,9.999999747378752e-05
0.00029567547608166933,1.0,0.6071068644523621,0.8799999952316284,9.999999747378752e-05
0.0001867872051661834,1.0,0.6092949509620667,0.8799999952316284,9.999999747378752e-05
0.0001502948289271444,1.0,0.609839677810669,0.8799999952316284,9.999999747378752e-05
0.0003188124392181635,1.0,0.6077309250831604,0.8799999952316284,9.999999747378752e-05
0.00020518597739282995,1.0,0.6045138239860535,0.8799999952316284,9.999999747378752e-05
0.00025897633167915046,1.0,0.5987831950187683,0.8799999952316284,9.999999747378752e-05
0.0006544686621055007,1.0,0.6053210496902466,0.8799999952316284,9.999999747378752e-05
0.000720648153219372,1.0,0.6060805320739746,0.8799999952316284,9.999999747378752e-05
0.00029216104303486645,1.0,0.6030198931694031,0.8799999952316284,9.999999747378752e-05
0.00031307144672609866,1.0,0.5957069993019104,0.8799999952316284,9.999999747378752e-05
0.0001899002236314118,1.0,0.5923353433609009,0.8799999952316284,9.999999747378752e-05
0.000211491365917027,1.0,0.5931961536407471,0.8799999952316284,9.999999747378752e-05
0.00022709337645210326,1.0,0.5950291156768799,0.8799999952316284,9.999999747378752e-05
0.00013356946874409914,1.0,0.5970963835716248,0.8799999952316284,9.999999747378752e-05
0.00020356840104795992,1.0,0.598490297794342,0.8799999952316284,9.999999747378752e-05
0.000765846692956984,1.0,0.6214703917503357,0.8799999952316284,9.999999747378752e-05
0.00013231011689640582,1.0,0.6306021213531494,0.8799999952316284,9.999999747378752e-05
0.0005249163950793445,1.0,0.6272402405738831,0.8799999952316284,9.999999747378752e-05
0.00017413371824659407,1.0,0.6208443641662598,0.8799999952316284,9.999999747378752e-05
0.00021956535056233406,1.0,0.6158496737480164,0.8799999952316284,9.999999747378752e-05
0.0002807869459502399,1.0,0.6085853576660156,0.8799999952316284,9.999999747378752e-05
0.00047963313409127295,1.0,0.5952244400978088,0.8799999952316284,9.999999747378752e-05
0.0010631234617903829,1.0,0.5834279656410217,0.8799999952316284,9.999999747378752e-05
0.0008964870939962566,1.0,0.5905481576919556,0.8799999952316284,9.999999747378752e-05
0.00019371844246052206,1.0,0.6001062393188477,0.8799999952316284,9.999999747378752e-05
0.00024502433370798826,1.0,0.6003895401954651,0.8799999952316284,9.999999747378752e-05
0.00017337180906906724,1.0,0.5970714688301086,0.8799999952316284,9.999999747378752e-05
0.00032803951762616634,1.0,0.5993819832801819,0.8799999952316284,9.999999747378752e-05
0.00017593003576621413,1.0,0.6005541086196899,0.8799999952316284,9.999999747378752e-05
0.00026970161707140505,1.0,0.6013564467430115,0.8799999952316284,9.999999747378752e-05
0.00024933344684541225,1.0,0.6004159450531006,0.8799999952316284,9.999999747378752e-05
0.0004584585258271545,1.0,0.6023933291435242,0.8799999952316284,9.999999747378752e-05
0.0003158563340548426,1.0,0.6099724769592285,0.8799999952316284,9.999999747378752e-05
0.00019319364218972623,1.0,0.6224309206008911,0.8799999952316284,9.999999747378752e-05
0.0001577316434122622,1.0,0.6278891563415527,0.8799999952316284,9.999999747378752e-05
0.00022231852926779538,1.0,0.6252372860908508,0.8799999952316284,9.999999747378752e-05
0.00016193489136639982,1.0,0.6219602823257446,0.8799999952316284,9.999999747378752e-05
0.00028337095864117146,1.0,0.6186273097991943,0.8799999952316284,9.999999747378752e-05
0.0003221492515876889,1.0,0.6228177547454834,0.8799999952316284,9.999999747378752e-05
0.0003175235178787261,1.0,0.6339342594146729,0.8799999952316284,9.999999747378752e-05
0.00029793853173032403,1.0,0.6321452856063843,0.8799999952316284,9.999999747378752e-05
0.0004416471056174487,1.0,0.6292030215263367,0.8799999952316284,9.999999747378752e-05
0.00017448583093937486,1.0,0.6347217559814453,0.8799999952316284,9.999999747378752e-05
0.0002780768263619393,1.0,0.6132339239120483,0.8799999952316284,9.999999747378752e-05
0.00016379030421376228,1.0,0.6045846343040466,0.8799999952316284,9.999999747378752e-05
0.0003537119191605598,1.0,0.6013983488082886,0.8799999952316284,9.999999747378752e-05
0.00010546849807724357,1.0,0.6009729504585266,0.8799999952316284,9.999999747378752e-05
0.00021590371034108102,1.0,0.6011659502983093,0.8799999952316284,9.999999747378752e-05
0.0002897557569667697,1.0,0.6063238382339478,0.8799999952316284,9.999999747378752e-05
0.00015178063767962158,1.0,0.6070795059204102,0.8799999952316284,9.999999747378752e-05
0.0002906901063397527,1.0,0.6077540516853333,0.8799999952316284,9.999999747378752e-05
0.00018638625624589622,1.0,0.6110289096832275,0.8799999952316284,9.999999747378752e-05
0.0006753831403329968,1.0,0.6154005527496338,0.8799999952316284,9.999999747378752e-05
0.0004682062426581979,1.0,0.6310440897941589,0.8799999952316284,9.999999747378752e-05
0.0002728609833866358,1.0,0.6403269171714783,0.8700000047683716,9.999999747378752e-05
0.0002370126749156043,1.0,0.6322565674781799,0.8700000047683716,9.999999747378752e-05
0.00030302267987281084,1.0,0.6258113384246826,0.8700000047683716,9.999999747378752e-05
0.00017018408107105643,1.0,0.6227447390556335,0.8799999952316284,9.999999747378752e-05
0.00012689463619608432,1.0,0.6174187660217285,0.8799999952316284,9.999999747378752e-05
0.00024165853392332792,1.0,0.604834258556366,0.8799999952316284,9.999999747378752e-05
0.0003057802969124168,1.0,0.6025630235671997,0.8799999952316284,9.999999747378752e-05
0.00021151918917894363,1.0,0.6006317734718323,0.8799999952316284,9.999999747378752e-05
0.00032788433600217104,1.0,0.5949869751930237,0.8799999952316284,9.999999747378752e-05
0.00021391735936049372,1.0,0.588249921798706,0.8799999952316284,9.999999747378752e-05
0.0003249367291573435,1.0,0.5896517038345337,0.8799999952316284,9.999999747378752e-05
0.0002931690833065659,1.0,0.602461576461792,0.8799999952316284,9.999999747378752e-05
0.0002564708993304521,1.0,0.6069625616073608,0.8799999952316284,9.999999747378752e-05
0.0007412939448840916,1.0,0.6274566650390625,0.8799999952316284,9.999999747378752e-05
9.490527008892968e-05,1.0,0.6297190189361572,0.8799999952316284,9.999999747378752e-05
0.000387827109079808,1.0,0.6299999356269836,0.8799999952316284,9.999999747378752e-05
0.0003928059304598719,1.0,0.6225312948226929,0.8799999952316284,9.999999747378752e-05
0.00031498490716330707,1.0,0.6292371153831482,0.8799999952316284,9.999999747378752e-05
0.0007974164327606559,1.0,0.6320167779922485,0.8799999952316284,9.999999747378752e-05
0.00019892258569598198,1.0,0.6257627606391907,0.8799999952316284,9.999999747378752e-05
0.00023625558242201805,1.0,0.6165101528167725,0.8799999952316284,9.999999747378752e-05
0.00011881438695127144,1.0,0.6107544898986816,0.8799999952316284,9.999999747378752e-05
0.0005831617163494229,1.0,0.6407729387283325,0.8700000047683716,9.999999747378752e-05
8.067592716543004e-05,1.0,0.651207447052002,0.8700000047683716,9.999999747378752e-05
0.0007351586245931685,1.0,0.6887507438659668,0.8600000143051147,9.999999747378752e-05
0.00016891310224309564,1.0,0.6902062296867371,0.8600000143051147,9.999999747378752e-05
0.00011967825412284583,1.0,0.6699233055114746,0.8700000047683716,9.999999747378752e-05
9.747398144099861e-05,1.0,0.6486863493919373,0.8700000047683716,9.999999747378752e-05
0.0001852752611739561,1.0,0.630291223526001,0.8700000047683716,9.999999747378752e-05
0.00038332375697791576,1.0,0.6124622225761414,0.8799999952316284,9.999999747378752e-05
0.00039656643639318645,1.0,0.5979018211364746,0.8799999952316284,9.999999747378752e-05
0.0002677981974557042,1.0,0.5882294774055481,0.8799999952316284,9.999999747378752e-05
0.0007763145258650184,1.0,0.582410454750061,0.8799999952316284,9.999999747378752e-05
0.0001480490027461201,1.0,0.580542802810669,0.8899999856948853,9.999999747378752e-05
0.0004316329723224044,1.0,0.584924578666687,0.8799999952316284,9.999999747378752e-05
0.0002496647066436708,1.0,0.5961772203445435,0.8799999952316284,9.999999747378752e-05
0.0002633011608850211,1.0,0.5975788235664368,0.8799999952316284,9.999999747378752e-05
0.0002251792757306248,1.0,0.5951550006866455,0.8799999952316284,9.999999747378752e-05
0.0002792636805679649,1.0,0.5994881987571716,0.8799999952316284,9.999999747378752e-05
6.877184205222875e-05,1.0,0.6038335561752319,0.8799999952316284,9.999999747378752e-05
7.924852980067953e-05,1.0,0.6055788397789001,0.8799999952316284,9.999999747378752e-05
0.0005227819201536477,1.0,0.617319643497467,0.8799999952316284,9.999999747378752e-05
0.00010519879288040102,1.0,0.6218752861022949,0.8799999952316284,9.999999747378752e-05
0.00039639254100620747,1.0,0.633450984954834,0.8799999952316284,9.999999747378752e-05
0.00010932652367046103,1.0,0.6345075964927673,0.8799999952316284,9.999999747378752e-05
0.00014430086594074965,1.0,0.6304839253425598,0.8799999952316284,9.999999747378752e-05
9.140917973127216e-05,1.0,0.6255814433097839,0.8799999952316284,9.999999747378752e-05
0.00020929252787027508,1.0,0.6210008263587952,0.8799999952316284,9.999999747378752e-05
8.828239515423775e-05,1.0,0.6188627481460571,0.8799999952316284,9.999999747378752e-05
9.06669520190917e-05,1.0,0.6171391606330872,0.8799999952316284,9.999999747378752e-05
0.0001373544364469126,1.0,0.6157323718070984,0.8799999952316284,9.999999747378752e-05
0.00044788754894398153,1.0,0.6210240125656128,0.8799999952316284,9.999999747378752e-05
9.965486242435873e-05,1.0,0.6230545043945312,0.8799999952316284,9.999999747378752e-05
0.0001736561389407143,1.0,0.6204445362091064,0.8799999952316284,9.999999747378752e-05
0.0001991154858842492,1.0,0.6171144247055054,0.8799999952316284,9.999999747378752e-05
0.00016451354895252734,1.0,0.6129072308540344,0.8799999952316284,9.999999747378752e-05
0.0003883758618030697,1.0,0.617879331111908,0.8799999952316284,9.999999747378752e-05
0.00016868041711859405,1.0,0.6177703738212585,0.8799999952316284,9.999999747378752e-05
0.0035625710152089596,1.0,1.2120712995529175,0.8299999833106995,9.999999747378752e-05
0.00037957116728648543,1.0,1.8507739305496216,0.7799999713897705,9.999999747378752e-05
0.021734517067670822,0.9900000095367432,1.4027289152145386,0.7599999904632568,9.999999747378752e-05
0.00735464645549655,1.0,0.690603494644165,0.8899999856948853,9.999999747378752e-05
0.004276515915989876,1.0,1.1669689416885376,0.8100000023841858,9.999999747378752e-05
0.003883306635543704,1.0,0.9129152894020081,0.8600000143051147,9.999999747378752e-05
0.0058632283471524715,1.0,0.7607605457305908,0.8700000047683716,9.999999747378752e-05
0.0034337802790105343,1.0,0.6254820823669434,0.8600000143051147,9.999999747378752e-05
0.002020105719566345,1.0,0.5899437069892883,0.8600000143051147,9.999999747378752e-05
0.0010703732259571552,1.0,0.5680957436561584,0.8700000047683716,9.999999747378752e-05
0.0007212262134999037,1.0,0.5529208183288574,0.8799999952316284,9.999999747378752e-05
0.0020592999644577503,1.0,0.5509829521179199,0.8799999952316284,9.999999747378752e-05
0.002615265315398574,1.0,0.5605462789535522,0.8799999952316284,9.999999747378752e-05
0.001500649144873023,1.0,0.581810474395752,0.8799999952316284,9.999999747378752e-05
0.0004896979662589729,1.0,0.5854113101959229,0.8700000047683716,9.999999747378752e-05
0.0013280075509101152,1.0,0.5772691369056702,0.8700000047683716,9.999999747378752e-05
0.002649253699928522,1.0,0.5858882665634155,0.8700000047683716,9.999999747378752e-05
0.0021779658272862434,1.0,0.5745117664337158,0.8799999952316284,9.999999747378752e-05
0.0005674076965078712,1.0,0.5717992782592773,0.8899999856948853,9.999999747378752e-05
0.0015732854371890426,1.0,0.5413760542869568,0.8899999856948853,9.999999747378752e-05
0.00017382069199811667,1.0,0.529792070388794,0.8899999856948853,9.999999747378752e-05
0.0007494981400668621,1.0,0.5318153500556946,0.8899999856948853,9.999999747378752e-05
0.00023701461032032967,1.0,0.5391191244125366,0.8899999856948853,9.999999747378752e-05
0.0004286443581804633,1.0,0.548775851726532,0.8899999856948853,9.999999747378752e-05
0.00034749784390442073,1.0,0.5548025369644165,0.8899999856948853,9.999999747378752e-05
0.0017301104962825775,1.0,0.5598678588867188,0.8700000047683716,9.999999747378752e-05
0.0006106107030063868,1.0,0.5659040212631226,0.8700000047683716,9.999999747378752e-05
0.0002590357617009431,1.0,0.575603187084198,0.8700000047683716,9.999999747378752e-05
0.0004516659246291965,1.0,0.5818267464637756,0.8700000047683716,9.999999747378752e-05
0.00017618337005842477,1.0,0.5834958553314209,0.8700000047683716,9.999999747378752e-05
0.000455977744422853,1.0,0.5874965786933899,0.8700000047683716,9.999999747378752e-05
0.00023914228950161487,1.0,0.5873846411705017,0.8799999952316284,9.999999747378752e-05
0.0002551366633269936,1.0,0.5863312482833862,0.8799999952316284,9.999999747378752e-05
0.001183988992124796,1.0,0.5835325717926025,0.8799999952316284,9.999999747378752e-05
0.0004886051174253225,1.0,0.5910274386405945,0.8799999952316284,9.999999747378752e-05
0.00047093385364860296,1.0,0.5951890349388123,0.8799999952316284,9.999999747378752e-05
0.0002571168006397784,1.0,0.5969182848930359,0.8799999952316284,9.999999747378752e-05
0.00025276929954998195,1.0,0.5976309776306152,0.8799999952316284,9.999999747378752e-05
0.0004323470639064908,1.0,0.6017071008682251,0.8799999952316284,9.999999747378752e-05
0.0005377507768571377,1.0,0.5988528728485107,0.8799999952316284,9.999999747378752e-05
0.0004230553167872131,1.0,0.5981282591819763,0.8799999952316284,9.999999747378752e-05
0.0003973080310970545,1.0,0.5978042483329773,0.8799999952316284,9.999999747378752e-05
0.0002986885665450245,1.0,0.5968320369720459,0.8799999952316284,9.999999747378752e-05
0.00022345746401697397,1.0,0.5936517119407654,0.8799999952316284,9.999999747378752e-05
0.00037215970223769546,1.0,0.5928511023521423,0.8799999952316284,9.999999747378752e-05
0.0005002081743441522,1.0,0.5952895283699036,0.8799999952316284,9.999999747378752e-05
0.00021201973140705377,1.0,0.5979686975479126,0.8799999952316284,9.999999747378752e-05
0.004162908531725407,1.0,0.56635981798172,0.8700000047683716,9.999999747378752e-05
0.002024788875132799,1.0,0.5471280813217163,0.8600000143051147,9.999999747378752e-05
0.0006450976943597198,1.0,0.5374387502670288,0.8899999856948853,9.999999747378752e-05
0.00023908179719001055,1.0,0.5718721151351929,0.8799999952316284,9.999999747378752e-05
0.00026852753944694996,1.0,0.5899072885513306,0.8700000047683716,9.999999747378752e-05
0.00046977109741419554,1.0,0.5983597040176392,0.8600000143051147,9.999999747378752e-05
0.0004906164249405265,1.0,0.6034290194511414,0.8600000143051147,9.999999747378752e-05
0.00040031399112194777,1.0,0.6094837188720703,0.8600000143051147,9.999999747378752e-05
0.0001803294726414606,1.0,0.61053067445755,0.8799999952316284,9.999999747378752e-05
0.00019801905727945268,1.0,0.6106855869293213,0.8799999952316284,9.999999747378752e-05
0.0003184315573889762,1.0,0.6103314161300659,0.8799999952316284,9.999999747378752e-05
0.00031677650986239314,1.0,0.6083887815475464,0.8799999952316284,9.999999747378752e-05
0.00016050899284891784,1.0,0.6075426340103149,0.8799999952316284,9.999999747378752e-05
0.00041755932033993304,1.0,0.609656810760498,0.8799999952316284,9.999999747378752e-05
0.00020333228167146444,1.0,0.6117821931838989,0.8799999952316284,9.999999747378752e-05
0.0007803727639839053,1.0,0.6121823191642761,0.8799999952316284,9.999999747378752e-05
0.00011122410069219768,1.0,0.6154171824455261,0.8799999952316284,9.999999747378752e-05
0.023969920352101326,1.0,0.5894700884819031,0.8999999761581421,9.999999747378752e-05
0.004205809906125069,1.0,0.887687623500824,0.8500000238418579,9.999999747378752e-05
0.005386336240917444,1.0,0.9348446726799011,0.8500000238418579,9.999999747378752e-05
0.0005897720111533999,1.0,0.8596652746200562,0.8600000143051147,9.999999747378752e-05
0.0007733391248621047,1.0,0.7675612568855286,0.8700000047683716,9.999999747378752e-05
0.0004878654726780951,1.0,0.6989482641220093,0.8600000143051147,9.999999747378752e-05
0.0007973714964464307,1.0,0.6542078256607056,0.8700000047683716,9.999999747378752e-05
0.0011659151641651988,1.0,0.6291521191596985,0.8799999952316284,9.999999747378752e-05
0.0034727975726127625,1.0,0.585192084312439,0.8799999952316284,9.999999747378752e-05
0.000333054136717692,1.0,0.5668942332267761,0.8700000047683716,9.999999747378752e-05
0.0022178555373102427,1.0,0.565369725227356,0.8899999856948853,9.999999747378752e-05
0.0004424885264597833,1.0,0.5709959268569946,0.8899999856948853,9.999999747378752e-05
0.00035106486757285893,1.0,0.5781107544898987,0.8799999952316284,9.999999747378752e-05
0.0004011440905742347,1.0,0.5804668068885803,0.8799999952316284,9.999999747378752e-05
0.0005012892070226371,1.0,0.5806160569190979,0.8799999952316284,9.999999747378752e-05
0.00032668677158653736,1.0,0.5818290710449219,0.8799999952316284,9.999999747378752e-05
0.00033852853812277317,1.0,0.5795385241508484,0.8799999952316284,9.999999747378752e-05
0.0004971858579665422,1.0,0.5765920281410217,0.8899999856948853,9.999999747378752e-05
0.0005131240468472242,1.0,0.5675329566001892,0.8899999856948853,9.999999747378752e-05
0.00023171110660769045,1.0,0.5630924701690674,0.8899999856948853,9.999999747378752e-05
0.00015736791829112917,1.0,0.5624821186065674,0.8899999856948853,9.999999747378752e-05
0.00020760225015692413,1.0,0.5627408623695374,0.8899999856948853,9.999999747378752e-05
0.00013324449537321925,1.0,0.5640560984611511,0.8899999856948853,9.999999747378752e-05
0.0002295297454111278,1.0,0.5654098391532898,0.8899999856948853,9.999999747378752e-05
0.001147144939750433,1.0,0.5677635669708252,0.8899999856948853,9.999999747378752e-05
0.00019508872355800122,1.0,0.5636041164398193,0.8899999856948853,9.999999747378752e-05
0.0005098986439406872,1.0,0.5635542869567871,0.8899999856948853,9.999999747378752e-05
0.0002865492133423686,1.0,0.5634782314300537,0.8899999856948853,9.999999747378752e-05
0.00015160384646151215,1.0,0.5652160048484802,0.8899999856948853,9.999999747378752e-05
8.177058771252632e-05,1.0,0.5670909881591797,0.8899999856948853,9.999999747378752e-05
0.0007378179579973221,1.0,0.5679011344909668,0.8799999952316284,9.999999747378752e-05
0.0001836735027609393,1.0,0.5688888430595398,0.8799999952316284,9.999999747378752e-05
0.0006142794736661017,1.0,0.5726770162582397,0.8799999952316284,9.999999747378752e-05
0.0001687077310634777,1.0,0.5804699063301086,0.8799999952316284,9.999999747378752e-05
0.00015072482347022742,1.0,0.5824922323226929,0.8799999952316284,9.999999747378752e-05
0.00017039236263372004,1.0,0.5828543305397034,0.8799999952316284,9.999999747378752e-05
0.00017146565369330347,1.0,0.5830188989639282,0.8799999952316284,9.999999747378752e-05
0.00013561054947786033,1.0,0.5822764039039612,0.8799999952316284,9.999999747378752e-05
0.00027763418620452285,1.0,0.5819166302680969,0.8799999952316284,9.999999747378752e-05
8.521343261236325e-05,1.0,0.5848523378372192,0.8799999952316284,9.999999747378752e-05
0.0001588904851814732,1.0,0.5864607095718384,0.8799999952316284,9.999999747378752e-05
0.0006064705667085946,1.0,0.5850790739059448,0.8799999952316284,9.999999747378752e-05
0.00020232198585290462,1.0,0.5865715146064758,0.8799999952316284,9.999999747378752e-05
0.00021604381618089974,1.0,0.5878888964653015,0.8799999952316284,9.999999747378752e-05
0.0001956849155249074,1.0,0.5886021256446838,0.8799999952316284,9.999999747378752e-05
0.0006584198563359678,1.0,0.5879200100898743,0.8799999952316284,9.999999747378752e-05
0.0001736355625325814,1.0,0.5861369967460632,0.8799999952316284,9.999999747378752e-05
0.00023382090148516,1.0,0.5848212838172913,0.8799999952316284,9.999999747378752e-05
0.0004791496030520648,1.0,0.585408627986908,0.8799999952316284,9.999999747378752e-05
0.00015136234287638217,1.0,0.5882619023323059,0.8799999952316284,9.999999747378752e-05
0.0002285185328219086,1.0,0.5903453230857849,0.8799999952316284,9.999999747378752e-05
0.0004429318069014698,1.0,0.5917181968688965,0.8799999952316284,9.999999747378752e-05
0.00034792107180692255,1.0,0.5922448039054871,0.8799999952316284,9.999999747378752e-05
0.00010466819367138669,1.0,0.5888891816139221,0.8799999952316284,9.999999747378752e-05
0.0005096668610349298,1.0,0.5963572263717651,0.8799999952316284,9.999999747378752e-05
0.00016612937906756997,1.0,0.607770562171936,0.8799999952316284,9.999999747378752e-05
7.249173359014094e-05,1.0,0.6115663051605225,0.8899999856948853,9.999999747378752e-05
0.0002629212394822389,1.0,0.6127241253852844,0.8899999856948853,9.999999747378752e-05
0.0002506888413336128,1.0,0.6132649779319763,0.8799999952316284,9.999999747378752e-05
0.00011607199121499434,1.0,0.6111841797828674,0.8799999952316284,9.999999747378752e-05
0.00025539015769027174,1.0,0.6087067723274231,0.8799999952316284,9.999999747378752e-05
0.0001170373143395409,1.0,0.6128518581390381,0.8799999952316284,9.999999747378752e-05
7.838403689675033e-05,1.0,0.6128193140029907,0.8799999952316284,9.999999747378752e-05
0.00016901854542084038,1.0,0.6095445156097412,0.8799999952316284,9.999999747378752e-05
0.0007796210120432079,1.0,0.6052423715591431,0.8799999952316284,9.999999747378752e-05
0.00011610572983045131,1.0,0.5997889637947083,0.8799999952316284,9.999999747378752e-05
0.0002439469244563952,1.0,0.5992423295974731,0.8799999952316284,9.999999747378752e-05
0.00014277431182563305,1.0,0.6005207300186157,0.8799999952316284,9.999999747378752e-05
0.00022736539540346712,1.0,0.6017295718193054,0.8799999952316284,9.999999747378752e-05
0.0004481244832277298,1.0,0.6007175445556641,0.8799999952316284,9.999999747378752e-05
0.00022870606335345656,1.0,0.5986316204071045,0.8799999952316284,9.999999747378752e-05
7.463609654223546e-05,1.0,0.5969981551170349,0.8799999952316284,9.999999747378752e-05
0.00011032995826099068,1.0,0.5968825817108154,0.8799999952316284,9.999999747378752e-05
7.51382322050631e-05,1.0,0.5973368287086487,0.8799999952316284,9.999999747378752e-05
0.00011242201435379684,1.0,0.5980488061904907,0.8799999952316284,9.999999747378752e-05
0.00014605924661736935,1.0,0.5993959307670593,0.8799999952316284,9.999999747378752e-05
0.0001036339599522762,1.0,0.5997886061668396,0.8799999952316284,9.999999747378752e-05
0.00031892635161057115,1.0,0.6019774079322815,0.8799999952316284,9.999999747378752e-05
7.104840187821537e-05,1.0,0.6038068532943726,0.8799999952316284,9.999999747378752e-05
0.00018364218703936785,1.0,0.6053553819656372,0.8799999952316284,9.999999747378752e-05
0.00014685689529869705,1.0,0.60434889793396,0.8799999952316284,9.999999747378752e-05
0.0007353866822086275,1.0,0.6084455251693726,0.8799999952316284,9.999999747378752e-05
0.00012889991921838373,1.0,0.6162165403366089,0.8799999952316284,9.999999747378752e-05
0.00029634402017109096,1.0,0.6174018979072571,0.8799999952316284,9.999999747378752e-05
0.0006630346179008484,1.0,0.6124747395515442,0.8799999952316284,9.999999747378752e-05
0.0001757508289301768,1.0,0.6097712516784668,0.8799999952316284,9.999999747378752e-05
0.0002994687238242477,1.0,0.6099881529808044,0.8799999952316284,9.999999747378752e-05
0.00022399476438295096,1.0,0.6096938848495483,0.8799999952316284,9.999999747378752e-05
0.0012395851081237197,1.0,0.6131482720375061,0.8799999952316284,9.999999747378752e-05
8.078580140136182e-05,1.0,0.6165778636932373,0.8799999952316284,9.999999747378752e-05
0.0007053778390400112,1.0,0.6146517992019653,0.8799999952316284,9.999999747378752e-05
5.301004784996621e-05,1.0,0.6126243472099304,0.8799999952316284,9.999999747378752e-05
0.00016217333904933184,1.0,0.6132004261016846,0.8799999952316284,9.999999747378752e-05
0.00016872545529622585,1.0,0.613010823726654,0.8799999952316284,9.999999747378752e-05
0.0005589729407802224,1.0,0.6241335868835449,0.8799999952316284,9.999999747378752e-05
0.00010570477024884894,1.0,0.6266669034957886,0.8799999952316284,9.999999747378752e-05
0.00015055490075610578,1.0,0.6251428127288818,0.8799999952316284,9.999999747378752e-05
0.00030718042398802936,1.0,0.6237150430679321,0.8799999952316284,9.999999747378752e-05
0.00019815498671960086,1.0,0.6228599548339844,0.8799999952316284,9.999999747378752e-05
7.169017771957442e-05,1.0,0.6159599423408508,0.8799999952316284,9.999999747378752e-05
9.356436203233898e-05,1.0,0.6141254305839539,0.8799999952316284,9.999999747378752e-05
0.00014876665954943746,1.0,0.6146727800369263,0.8799999952316284,9.999999747378752e-05
0.0002618934086058289,1.0,0.617035448551178,0.8799999952316284,9.999999747378752e-05
0.00024389270402025431,1.0,0.6193105578422546,0.8799999952316284,9.999999747378752e-05
0.00047792436089366674,1.0,0.6156947016716003,0.8799999952316284,9.999999747378752e-05
0.00039577536517754197,1.0,0.6009965538978577,0.8799999952316284,9.999999747378752e-05
8.157237607520074e-05,1.0,0.5941979885101318,0.8799999952316284,9.999999747378752e-05
0.0002192535757785663,1.0,0.6000255346298218,0.8799999952316284,9.999999747378752e-05
0.00011557604011613876,1.0,0.604473352432251,0.8799999952316284,9.999999747378752e-05
6.812704668845981e-05,1.0,0.6057790517807007,0.8799999952316284,9.999999747378752e-05
0.00013883643259759992,1.0,0.6077371835708618,0.8799999952316284,9.999999747378752e-05
0.00011220364831387997,1.0,0.6113539338111877,0.8799999952316284,9.999999747378752e-05
0.00017230385856237262,1.0,0.6130279302597046,0.8799999952316284,9.999999747378752e-05
6.875471444800496e-05,1.0,0.6139132976531982,0.8799999952316284,9.999999747378752e-05
0.00010009118705056608,1.0,0.6159415245056152,0.8799999952316284,9.999999747378752e-05
0.00011226042988710105,1.0,0.6175777316093445,0.8799999952316284,9.999999747378752e-05
0.00011099188850494102,1.0,0.6192675232887268,0.8799999952316284,9.999999747378752e-05
4.8255620640702546e-05,1.0,0.6200003027915955,0.8799999952316284,9.999999747378752e-05
7.741135050309822e-05,1.0,0.6216569542884827,0.8799999952316284,9.999999747378752e-05
0.00021902684238739312,1.0,0.6186705231666565,0.8799999952316284,9.999999747378752e-05
0.00018723640823736787,1.0,0.6172997951507568,0.8799999952316284,9.999999747378752e-05
0.0001471383002353832,1.0,0.6152666211128235,0.8799999952316284,9.999999747378752e-05
0.00010591739555820823,1.0,0.6158473491668701,0.8799999952316284,9.999999747378752e-05
0.00012802149285562336,1.0,0.6154894232749939,0.8799999952316284,9.999999747378752e-05
0.0002998861309606582,1.0,0.6159983277320862,0.8799999952316284,9.999999747378752e-05
0.00021487881895154715,1.0,0.6162633299827576,0.8799999952316284,9.999999747378752e-05
6.56631964375265e-05,1.0,0.6166574358940125,0.8799999952316284,9.999999747378752e-05
8.941451960708946e-05,1.0,0.6166141033172607,0.8799999952316284,9.999999747378752e-05
0.00020863774989265949,1.0,0.6189370155334473,0.8799999952316284,9.999999747378752e-05
0.00021550143719650805,1.0,0.626527726650238,0.8799999952316284,9.999999747378752e-05
0.00011824961984530091,1.0,0.635478138923645,0.8799999952316284,9.999999747378752e-05
0.0005342265940271318,1.0,0.6318396925926208,0.8799999952316284,9.999999747378752e-05
0.0006180049967952073,1.0,0.6313410997390747,0.8799999952316284,9.999999747378752e-05
8.282365160994232e-05,1.0,0.6306983232498169,0.8799999952316284,9.999999747378752e-05
0.00010414524876978248,1.0,0.6316327452659607,0.8799999952316284,9.999999747378752e-05
0.000151327985804528,1.0,0.6307967901229858,0.8799999952316284,9.999999747378752e-05
0.00047705890028737485,1.0,0.6499189138412476,0.8799999952316284,9.999999747378752e-05
0.00011575008102227002,1.0,0.6786792278289795,0.8799999952316284,9.999999747378752e-05
9.811547352001071e-05,1.0,0.6808435320854187,0.8700000047683716,9.999999747378752e-05
0.0005267072119750082,1.0,0.6695360541343689,0.8799999952316284,9.999999747378752e-05
0.00014504248974844813,1.0,0.6579262018203735,0.8700000047683716,9.999999747378752e-05
0.00038907513953745365,1.0,0.650127649307251,0.8799999952316284,9.999999747378752e-05
0.00013065489474684,1.0,0.6498062610626221,0.8700000047683716,9.999999747378752e-05
8.801437797956169e-05,1.0,0.6464928984642029,0.8799999952316284,9.999999747378752e-05
8.283327042590827e-05,1.0,0.6437216997146606,0.8799999952316284,9.999999747378752e-05
0.00037122718640603125,1.0,0.6434905529022217,0.8799999952316284,9.999999747378752e-05
0.00011839623766718432,1.0,0.6404141783714294,0.8799999952316284,9.999999747378752e-05
0.000566572998650372,1.0,0.6412261724472046,0.8799999952316284,9.999999747378752e-05
6.78697251714766e-05,1.0,0.6465455889701843,0.8700000047683716,9.999999747378752e-05
0.0002953782386612147,1.0,0.6446903347969055,0.8700000047683716,9.999999747378752e-05
0.0001682288566371426,1.0,0.6418189406394958,0.8700000047683716,9.999999747378752e-05
0.0001320748997386545,1.0,0.6369511485099792,0.8799999952316284,9.999999747378752e-05
0.00012387684546411037,1.0,0.6335365176200867,0.8799999952316284,9.999999747378752e-05
0.00012688366405200213,1.0,0.6323891282081604,0.8799999952316284,9.999999747378752e-05
4.171550244791433e-05,1.0,0.6329425573348999,0.8799999952316284,9.999999747378752e-05
0.00013884974760003388,1.0,0.6326369643211365,0.8799999952316284,9.999999747378752e-05
0.00021264883980620652,1.0,0.6307975053787231,0.8799999952316284,9.999999747378752e-05
0.00010196582297794521,1.0,0.6297550797462463,0.8799999952316284,9.999999747378752e-05
0.0001416997838532552,1.0,0.6344117522239685,0.8799999952316284,9.999999747378752e-05
5.2778330427827314e-05,1.0,0.6371890902519226,0.8799999952316284,9.999999747378752e-05
0.0001214343574247323,1.0,0.6361297965049744,0.8799999952316284,9.999999747378752e-05
5.669185338774696e-05,1.0,0.6357305645942688,0.8799999952316284,9.999999747378752e-05
0.0003203364321961999,1.0,0.640685498714447,0.8799999952316284,9.999999747378752e-05
7.463787915185094e-05,1.0,0.6476944088935852,0.8799999952316284,9.999999747378752e-05
0.0002488494210410863,1.0,0.6530184149742126,0.8799999952316284,9.999999747378752e-05
0.00021757592912763357,1.0,0.643155038356781,0.8799999952316284,9.999999747378752e-05
0.00015356039511971176,1.0,0.6365832686424255,0.8799999952316284,9.999999747378752e-05
0.00010423053754493594,1.0,0.6309263706207275,0.8799999952316284,9.999999747378752e-05
0.00288075627759099,1.0,0.7797806262969971,0.8600000143051147,9.999999747378752e-05
0.00039167501381598413,1.0,0.9606598019599915,0.8500000238418579,9.999999747378752e-05
0.00019874103600159287,1.0,0.9351727962493896,0.8500000238418579,9.999999747378752e-05
0.00016181515820790082,1.0,0.8552033305168152,0.8700000047683716,9.999999747378752e-05
0.00015962038014549762,1.0,0.7920365929603577,0.8600000143051147,9.999999747378752e-05
0.00023275283456314355,1.0,0.7175001502037048,0.8600000143051147,9.999999747378752e-05
0.00016470826813019812,1.0,0.6624714732170105,0.8799999952316284,9.999999747378752e-05
0.00014330031990539283,1.0,0.6401261687278748,0.8799999952316284,9.999999747378752e-05
0.0001117033971240744,1.0,0.6284294128417969,0.8799999952316284,9.999999747378752e-05
0.00016357038111891598,1.0,0.6210953593254089,0.8799999952316284,9.999999747378752e-05
7.348564395215362e-05,1.0,0.6186751127243042,0.8799999952316284,9.999999747378752e-05
0.00015981262549757957,1.0,0.6135668158531189,0.8799999952316284,9.999999747378752e-05
0.00017074546485673636,1.0,0.6118253469467163,0.8799999952316284,9.999999747378752e-05
7.977335917530581e-05,1.0,0.6089956760406494,0.8799999952316284,9.999999747378752e-05
7.35314388293773e-05,1.0,0.6060175895690918,0.8799999952316284,9.999999747378752e-05
0.0001264819293282926,1.0,0.6067737340927124,0.8799999952316284,9.999999747378752e-05
0.00011747081589419395,1.0,0.605478048324585,0.8799999952316284,9.999999747378752e-05
0.00025942554930225015,1.0,0.6056114435195923,0.8799999952316284,9.999999747378752e-05
0.0001473222073400393,1.0,0.6042559146881104,0.8799999952316284,9.999999747378752e-05
0.00016874312132131308,1.0,0.6071985363960266,0.8799999952316284,9.999999747378752e-05
0.0003226713160984218,1.0,0.6105983257293701,0.8799999952316284,9.999999747378752e-05
0.00015709217404946685,1.0,0.6143626570701599,0.8799999952316284,9.999999747378752e-05
6.381411367328838e-05,1.0,0.6159988641738892,0.8799999952316284,9.999999747378752e-05
9.642967052059248e-05,1.0,0.6161871552467346,0.8799999952316284,9.999999747378752e-05
0.00013084520469419658,1.0,0.6179690361022949,0.8799999952316284,9.999999747378752e-05
0.00012184540537418798,1.0,0.6186103224754333,0.8799999952316284,9.999999747378752e-05
6.599142216145992e-05,1.0,0.6184743642807007,0.8799999952316284,9.999999747378752e-05
8.125637396005914e-05,1.0,0.6182394027709961,0.8799999952316284,9.999999747378752e-05
6.812543142586946e-05,1.0,0.6167901158332825,0.8799999952316284,9.999999747378752e-05
0.0002920373808592558,1.0,0.618708074092865,0.8799999952316284,9.999999747378752e-05
7.501448271796107e-05,1.0,0.6234261989593506,0.8799999952316284,9.999999747378752e-05
3.540674515534192e-05,1.0,0.6244853138923645,0.8799999952316284,9.999999747378752e-05
0.00010048881085822359,1.0,0.6237376928329468,0.8799999952316284,9.999999747378752e-05
0.0003867350169457495,1.0,0.6346802711486816,0.8799999952316284,9.999999747378752e-05
0.00029302449547685683,1.0,0.6463331580162048,0.8700000047683716,9.999999747378752e-05
5.137755942996591e-05,1.0,0.6496436595916748,0.8700000047683716,9.999999747378752e-05
7.264306623255834e-05,1.0,0.6480281352996826,0.8700000047683716,9.999999747378752e-05
4.154485941398889e-05,1.0,0.6439239382743835,0.8700000047683716,9.999999747378752e-05
0.0001250772620551288,1.0,0.6398882269859314,0.8799999952316284,9.999999747378752e-05
6.032639794284478e-05,1.0,0.6360464096069336,0.8799999952316284,9.999999747378752e-05
7.15676142135635e-05,1.0,0.6313104629516602,0.8799999952316284,9.999999747378752e-05
0.00011560088751139119,1.0,0.6269677877426147,0.8799999952316284,9.999999747378752e-05
0.0004979817313142121,1.0,0.6316643953323364,0.8799999952316284,9.999999747378752e-05
0.00012580881593748927,1.0,0.6354566812515259,0.8799999952316284,9.999999747378752e-05
8.058764797169715e-05,1.0,0.6343756318092346,0.8799999952316284,9.999999747378752e-05
8.556643297197297e-05,1.0,0.6336376667022705,0.8799999952316284,9.999999747378752e-05
0.00014503268175758421,1.0,0.6354079246520996,0.8799999952316284,9.999999747378752e-05
0.00011359005293343216,1.0,0.6367698907852173,0.8799999952316284,9.999999747378752e-05
7.280570571310818e-05,1.0,0.637319803237915,0.8799999952316284,9.999999747378752e-05
7.268835906870663e-05,1.0,0.633905291557312,0.8799999952316284,9.999999747378752e-05
0.00010580596426734701,1.0,0.6297863125801086,0.8799999952316284,9.999999747378752e-05
0.000312181597109884,1.0,0.6282622814178467,0.8799999952316284,9.999999747378752e-05
0.00028613980975933373,1.0,0.6248611211776733,0.8799999952316284,9.999999747378752e-05
4.131822061026469e-05,1.0,0.6293593049049377,0.8799999952316284,9.999999747378752e-05
0.00012913544196635485,1.0,0.6328800320625305,0.8799999952316284,9.999999747378752e-05
0.00011016216012649238,1.0,0.6344716548919678,0.8799999952316284,9.999999747378752e-05
0.00029728945810347795,1.0,0.6277461051940918,0.8799999952316284,9.999999747378752e-05
0.00010361376916989684,1.0,0.6199861764907837,0.8799999952316284,9.999999747378752e-05
8.726202213438228e-05,1.0,0.6201938390731812,0.8799999952316284,9.999999747378752e-05
0.00017847187700681388,1.0,0.6235535740852356,0.8799999952316284,9.999999747378752e-05
0.00010796650894917548,1.0,0.6217426061630249,0.8799999952316284,9.999999747378752e-05
8.716454613022506e-05,1.0,0.6218903064727783,0.8799999952316284,9.999999747378752e-05
3.7532150599872693e-05,1.0,0.6215107440948486,0.8799999952316284,9.999999747378752e-05
0.00023250722733791918,1.0,0.6271780133247375,0.8799999952316284,9.999999747378752e-05
5.5938606237759814e-05,1.0,0.6298899054527283,0.8799999952316284,9.999999747378752e-05
0.00012714965851046145,1.0,0.6298846006393433,0.8799999952316284,9.999999747378752e-05
9.75207585725002e-05,1.0,0.628334641456604,0.8799999952316284,9.999999747378752e-05
8.579168206779286e-05,1.0,0.6306007504463196,0.8799999952316284,9.999999747378752e-05
0.00016541042714379728,1.0,0.6261654496192932,0.8799999952316284,9.999999747378752e-05
0.00045255853910930455,1.0,0.6190210580825806,0.8799999952316284,9.999999747378752e-05
8.663888002047315e-05,1.0,0.6082272529602051,0.8799999952316284,9.999999747378752e-05
0.00015527938376180828,1.0,0.6128234267234802,0.8799999952316284,9.999999747378752e-05
0.00012263272947166115,1.0,0.6240836381912231,0.8799999952316284,9.999999747378752e-05
0.0004660053236875683,1.0,0.6354641318321228,0.8799999952316284,9.999999747378752e-05
9.292619506595656e-05,1.0,0.6518466472625732,0.8799999952316284,9.999999747378752e-05
9.575928561389446e-05,1.0,0.6540415287017822,0.8799999952316284,9.999999747378752e-05
8.0515856097918e-05,1.0,0.6518645286560059,0.8799999952316284,9.999999747378752e-05
8.472979970974848e-05,1.0,0.642184317111969,0.8799999952316284,9.999999747378752e-05
3.822535290964879e-05,1.0,0.6392886638641357,0.8799999952316284,9.999999747378752e-05
0.000545613351278007,1.0,0.630662202835083,0.8799999952316284,9.999999747378752e-05
7.726943294983357e-05,1.0,0.617920994758606,0.8799999952316284,9.999999747378752e-05
0.0009817061945796013,1.0,0.6718504428863525,0.8700000047683716,9.999999747378752e-05
5.045244324719533e-05,1.0,0.7409416437149048,0.8600000143051147,9.999999747378752e-05
0.0001288039202336222,1.0,0.7562558650970459,0.8500000238418579,9.999999747378752e-05
8.266422082670033e-05,1.0,0.7351548075675964,0.8500000238418579,9.999999747378752e-05
8.702098421053961e-05,1.0,0.7127974629402161,0.8700000047683716,9.999999747378752e-05
0.0002463592682033777,1.0,0.687869131565094,0.8799999952316284,9.999999747378752e-05
6.171184941194952e-05,1.0,0.6694703102111816,0.8799999952316284,9.999999747378752e-05
9.304061677539721e-05,1.0,0.6593086123466492,0.8799999952316284,9.999999747378752e-05
6.306089198915288e-05,1.0,0.652282178401947,0.8799999952316284,9.999999747378752e-05
0.00026419057394377887,1.0,0.6536396741867065,0.8799999952316284,9.999999747378752e-05
6.293442856986076e-05,1.0,0.6461579203605652,0.8799999952316284,9.999999747378752e-05
0.00023682694882154465,1.0,0.6395633220672607,0.8799999952316284,9.999999747378752e-05
6.330268661258742e-05,1.0,0.6384004354476929,0.8799999952316284,9.999999747378752e-05
0.00027866652817465365,1.0,0.6418188214302063,0.8799999952316284,9.999999747378752e-05
6.72487512929365e-05,1.0,0.6418824195861816,0.8799999952316284,9.999999747378752e-05
6.815767119405791e-05,1.0,0.6444080471992493,0.8799999952316284,9.999999747378752e-05
0.00012305978452786803,1.0,0.6489860415458679,0.8799999952316284,9.999999747378752e-05
4.7112647735048085e-05,1.0,0.650658130645752,0.8799999952316284,9.999999747378752e-05
5.3669809858547524e-05,1.0,0.650165319442749,0.8799999952316284,9.999999747378752e-05
9.700656664790586e-05,1.0,0.6493881940841675,0.8799999952316284,9.999999747378752e-05
0.00014242998440749943,1.0,0.64924156665802,0.8799999952316284,9.999999747378752e-05
5.357014015316963e-05,1.0,0.6508947014808655,0.8799999952316284,9.999999747378752e-05
0.0002850654418580234,1.0,0.6576460003852844,0.8799999952316284,9.999999747378752e-05
8.11065110610798e-05,1.0,0.6580436825752258,0.8799999952316284,9.999999747378752e-05
6.798128742957488e-05,1.0,0.6570553779602051,0.8799999952316284,9.999999747378752e-05
6.708578439429402e-05,1.0,0.6540395617485046,0.8799999952316284,9.999999747378752e-05
2.7110894734505564e-05,1.0,0.6492245197296143,0.8799999952316284,9.999999747378752e-05
5.4702813940821216e-05,1.0,0.6470015048980713,0.8799999952316284,9.999999747378752e-05
5.7255678257206455e-05,1.0,0.6451312303543091,0.8799999952316284,9.999999747378752e-05
5.1298626203788444e-05,1.0,0.6435900926589966,0.8799999952316284,9.999999747378752e-05
3.549510074662976e-05,1.0,0.6429257392883301,0.8799999952316284,9.999999747378752e-05
4.66880519525148e-05,1.0,0.6436614394187927,0.8799999952316284,9.999999747378752e-05
7.90786580182612e-05,1.0,0.6438205242156982,0.8799999952316284,9.999999747378752e-05
0.00011254770652158186,1.0,0.6402714252471924,0.8799999952316284,9.999999747378752e-05
7.863984501454979e-05,1.0,0.6394097805023193,0.8799999952316284,9.999999747378752e-05
9.398713882546872e-05,1.0,0.6389657258987427,0.8799999952316284,9.999999747378752e-05
0.00011982162686763331,1.0,0.6355870962142944,0.8799999952316284,9.999999747378752e-05
0.0003995906445197761,1.0,0.6504355669021606,0.8799999952316284,9.999999747378752e-05
0.00048408337170258164,1.0,0.6245175004005432,0.8799999952316284,9.999999747378752e-05
0.00014711522089783102,1.0,0.6029930710792542,0.8899999856948853,9.999999747378752e-05
0.00010712521179812029,1.0,0.6037891507148743,0.8899999856948853,9.999999747378752e-05
9.373675857204944e-05,1.0,0.6072227954864502,0.8899999856948853,9.999999747378752e-05
0.00021854889928363264,1.0,0.6204809546470642,0.8799999952316284,9.999999747378752e-05
0.00028779430431313813,1.0,0.6369522213935852,0.8799999952316284,9.999999747378752e-05
5.47591334907338e-05,1.0,0.6606055498123169,0.8799999952316284,9.999999747378752e-05
0.00010146279964828864,1.0,0.665676474571228,0.8799999952316284,9.999999747378752e-05
0.00019714028167072684,1.0,0.6655409932136536,0.8799999952316284,9.999999747378752e-05
3.713566911756061e-05,1.0,0.6680042147636414,0.8799999952316284,9.999999747378752e-05
5.056592635810375e-05,1.0,0.668229877948761,0.8799999952316284,9.999999747378752e-05
9.479191794525832e-05,1.0,0.6694568395614624,0.8799999952316284,9.999999747378752e-05
0.00022596033522859216,1.0,0.6653512716293335,0.8799999952316284,9.999999747378752e-05
3.713505793712102e-05,1.0,0.6598568558692932,0.8799999952316284,9.999999747378752e-05
0.00018013281805906445,1.0,0.6611896753311157,0.8799999952316284,9.999999747378752e-05
5.717029853258282e-05,1.0,0.6594432592391968,0.8799999952316284,9.999999747378752e-05
0.0007323702448047698,1.0,0.7025543451309204,0.8600000143051147,9.999999747378752e-05
7.871499110478908e-05,1.0,0.7339983582496643,0.8600000143051147,9.999999747378752e-05
0.00021306017879396677,1.0,0.7308562994003296,0.8600000143051147,9.999999747378752e-05
4.2427447624504566e-05,1.0,0.7245433330535889,0.8600000143051147,9.999999747378752e-05
0.00016972003504633904,1.0,0.7142776250839233,0.8700000047683716,9.999999747378752e-05
5.875366332475096e-05,1.0,0.6978078484535217,0.8600000143051147,9.999999747378752e-05
8.416025957558304e-05,1.0,0.6852291226387024,0.8600000143051147,9.999999747378752e-05
4.908713526674546e-05,1.0,0.674988865852356,0.8799999952316284,9.999999747378752e-05
0.0001602932607056573,1.0,0.661577045917511,0.8799999952316284,9.999999747378752e-05
4.539791552815586e-05,1.0,0.65519118309021,0.8799999952316284,9.999999747378752e-05
0.0003698007785715163,1.0,0.6559017896652222,0.8799999952316284,9.999999747378752e-05
0.00013433993444778025,1.0,0.6680842638015747,0.8799999952316284,9.999999747378752e-05
8.121845894493163e-05,1.0,0.6820617914199829,0.8700000047683716,9.999999747378752e-05
9.154561121249571e-05,1.0,0.6825035810470581,0.8799999952316284,9.999999747378752e-05
5.021887045586482e-05,1.0,0.6792776584625244,0.8799999952316284,9.999999747378752e-05
0.0001069794234354049,1.0,0.6762144565582275,0.8799999952316284,9.999999747378752e-05
4.444332807906903e-05,1.0,0.673471212387085,0.8799999952316284,9.999999747378752e-05
0.00025653859484009445,1.0,0.6784882545471191,0.8799999952316284,9.999999747378752e-05
7.035220187390223e-05,1.0,0.6845120787620544,0.8799999952316284,9.999999747378752e-05
0.00012375685037113726,1.0,0.6899023652076721,0.8799999952316284,9.999999747378752e-05
5.812339804833755e-05,1.0,0.6857520937919617,0.8799999952316284,9.999999747378752e-05
9.507732465863228e-05,1.0,0.6809263825416565,0.8799999952316284,9.999999747378752e-05
8.230189996538684e-05,1.0,0.6775853037834167,0.8799999952316284,9.999999747378752e-05
5.146970579517074e-05,1.0,0.6706012487411499,0.8799999952316284,9.999999747378752e-05
0.00011933348287129775,1.0,0.6601178050041199,0.8799999952316284,9.999999747378752e-05
0.0001151105752796866,1.0,0.6555765271186829,0.8799999952316284,9.999999747378752e-05
0.00019581144442781806,1.0,0.6652006506919861,0.8799999952316284,9.999999747378752e-05
0.00013838702579960227,1.0,0.6784168481826782,0.8799999952316284,9.999999747378752e-05
2.1232766812318005e-05,1.0,0.6875566840171814,0.8799999952316284,9.999999747378752e-05
0.0001006879101623781,1.0,0.6973693370819092,0.8799999952316284,9.999999747378752e-05
0.0004146643332205713,1.0,0.6875108480453491,0.8799999952316284,9.999999747378752e-05
8.051663462538272e-05,1.0,0.6331583261489868,0.8799999952316284,9.999999747378752e-05
9.7526608442422e-05,1.0,0.6201267838478088,0.8899999856948853,9.999999747378752e-05
0.00013710367784369737,1.0,0.625710129737854,0.8799999952316284,9.999999747378752e-05
0.00045602302998304367,1.0,0.6490622758865356,0.8799999952316284,9.999999747378752e-05
6.5783598984126e-05,1.0,0.7087476849555969,0.8600000143051147,9.999999747378752e-05
0.0001914001040859148,1.0,0.7175454497337341,0.8600000143051147,9.999999747378752e-05
7.371669926214963e-05,1.0,0.6974923610687256,0.8700000047683716,9.999999747378752e-05
6.127296364866197e-05,1.0,0.6818692684173584,0.8700000047683716,9.999999747378752e-05
0.00014081357221584767,1.0,0.6723873019218445,0.8700000047683716,9.999999747378752e-05
0.0001250030763912946,1.0,0.6597856283187866,0.8700000047683716,9.999999747378752e-05
5.310938286129385e-05,1.0,0.6545781493186951,0.8799999952316284,9.999999747378752e-05
9.815237717702985e-05,1.0,0.6514451503753662,0.8799999952316284,9.999999747378752e-05
0.0011481643887236714,1.0,1.2256585359573364,0.8399999737739563,9.999999747378752e-05
0.00351547310128808,1.0,0.8407261371612549,0.8799999952316284,9.999999747378752e-05
0.0044370959512889385,1.0,0.6788821220397949,0.8700000047683716,9.999999747378752e-05
0.00021837365056853741,1.0,0.6580946445465088,0.8600000143051147,9.999999747378752e-05
0.0019749640487134457,1.0,0.6894415020942688,0.8600000143051147,9.999999747378752e-05
0.0004444924124982208,1.0,0.7093546390533447,0.8600000143051147,9.999999747378752e-05
0.002014221390709281,1.0,0.6882802844047546,0.8600000143051147,9.999999747378752e-05
0.00027437234530225396,1.0,0.6782647967338562,0.8700000047683716,9.999999747378752e-05
0.00019972746667917818,1.0,0.6627497673034668,0.8799999952316284,9.999999747378752e-05
0.00010156685311812907,1.0,0.655456006526947,0.8799999952316284,9.999999747378752e-05
0.0024837860837578773,1.0,0.647520899772644,0.8700000047683716,9.999999747378752e-05
8.909212192520499e-05,1.0,0.6477290391921997,0.8700000047683716,9.999999747378752e-05
0.0005085214506834745,1.0,0.6918367147445679,0.8700000047683716,9.999999747378752e-05
0.0006061152089387178,1.0,0.6865724921226501,0.8600000143051147,9.999999747378752e-05
0.0001820143370423466,1.0,0.6772432923316956,0.8600000143051147,9.999999747378752e-05
0.00012687132402788848,1.0,0.6788443922996521,0.8600000143051147,9.999999747378752e-05
0.0004975578049197793,1.0,0.6989610195159912,0.8700000047683716,9.999999747378752e-05
0.00018856688984669745,1.0,0.7030609846115112,0.8700000047683716,9.999999747378752e-05
0.0001298811985179782,1.0,0.6940038204193115,0.8700000047683716,9.999999747378752e-05
0.00046530674444511533,1.0,0.6667137742042542,0.8600000143051147,9.999999747378752e-05
0.00024606529041193426,1.0,0.6604161858558655,0.8700000047683716,9.999999747378752e-05
3.9498216210631654e-05,1.0,0.6569410562515259,0.8700000047683716,9.999999747378752e-05
0.00010424109495943412,1.0,0.6529518961906433,0.8700000047683716,9.999999747378752e-05
0.000184406919288449,1.0,0.6496096849441528,0.8799999952316284,9.999999747378752e-05
0.00010568030847935006,1.0,0.6441465616226196,0.8799999952316284,9.999999747378752e-05
0.00011997001274721697,1.0,0.6379358768463135,0.8799999952316284,9.999999747378752e-05
0.00011674976121867076,1.0,0.636400580406189,0.8799999952316284,9.999999747378752e-05
4.9704325647326186e-05,1.0,0.6350147128105164,0.8799999952316284,9.999999747378752e-05
9.540192695567384e-05,1.0,0.6332259774208069,0.8799999952316284,9.999999747378752e-05
0.0006266486598178744,1.0,0.6278231739997864,0.8799999952316284,9.999999747378752e-05
0.0002302687498740852,1.0,0.6276851892471313,0.8799999952316284,9.999999747378752e-05
0.0002553505764808506,1.0,0.6395105123519897,0.8799999952316284,9.999999747378752e-05
0.0002372417802689597,1.0,0.6595771312713623,0.8700000047683716,9.999999747378752e-05
9.331350156571716e-05,1.0,0.6671760082244873,0.8700000047683716,9.999999747378752e-05
7.24410274415277e-05,1.0,0.66810142993927,0.8700000047683716,9.999999747378752e-05
0.00010686225141398609,1.0,0.6661888360977173,0.8799999952316284,9.999999747378752e-05
0.0001593048800714314,1.0,0.6656915545463562,0.8799999952316284,9.999999747378752e-05
0.00014290167018771172,1.0,0.6637782454490662,0.8799999952316284,9.999999747378752e-05
5.946671080891974e-05,1.0,0.6614553928375244,0.8799999952316284,9.999999747378752e-05
0.00014439161168411374,1.0,0.6662940382957458,0.8799999952316284,9.999999747378752e-05
5.173006502445787e-05,1.0,0.6663788557052612,0.8799999952316284,9.999999747378752e-05
0.00010068853589473292,1.0,0.6687171459197998,0.8799999952316284,9.999999747378752e-05
0.0002955103409476578,1.0,0.6802452802658081,0.8799999952316284,9.999999747378752e-05
6.812507490394637e-05,1.0,0.6847706437110901,0.8799999952316284,9.999999747378752e-05
4.978503056918271e-05,1.0,0.683092474937439,0.8799999952316284,9.999999747378752e-05
5.4176736739464104e-05,1.0,0.6784678101539612,0.8799999952316284,9.999999747378752e-05
0.0004219142720103264,1.0,0.6751856803894043,0.8799999952316284,9.999999747378752e-05
0.00018308759899809957,1.0,0.6722403168678284,0.8799999952316284,9.999999747378752e-05
0.0003995186125393957,1.0,0.6587250232696533,0.8799999952316284,9.999999747378752e-05
0.00010681692219804972,1.0,0.6562471985816956,0.8799999952316284,9.999999747378752e-05
6.836998363723978e-05,1.0,0.6556938886642456,0.8799999952316284,9.999999747378752e-05
0.00022703100694343448,1.0,0.6552118062973022,0.8799999952316284,9.999999747378752e-05
4.4152868213132024e-05,1.0,0.6567240357398987,0.8799999952316284,9.999999747378752e-05
0.00010839718743227422,1.0,0.6563311815261841,0.8799999952316284,9.999999747378752e-05
9.137098822975531e-05,1.0,0.6557117700576782,0.8799999952316284,9.999999747378752e-05
0.00010685629240470007,1.0,0.6533408164978027,0.8799999952316284,9.999999747378752e-05
0.0002078906836686656,1.0,0.6547486186027527,0.8799999952316284,9.999999747378752e-05
5.807154957437888e-05,1.0,0.655302107334137,0.8799999952316284,9.999999747378752e-05
0.00010573690087767318,1.0,0.6545869708061218,0.8799999952316284,9.999999747378752e-05
9.294774645240977e-05,1.0,0.6544239521026611,0.8799999952316284,9.999999747378752e-05
7.144233677536249e-05,1.0,0.6554504632949829,0.8799999952316284,9.999999747378752e-05
7.948739221319556e-05,1.0,0.6582006812095642,0.8799999952316284,9.999999747378752e-05
7.118264329619706e-05,1.0,0.6594703197479248,0.8799999952316284,9.999999747378752e-05
3.9952803490450606e-05,1.0,0.6603771448135376,0.8799999952316284,9.999999747378752e-05
0.00011727901437552646,1.0,0.6578748822212219,0.8799999952316284,9.999999747378752e-05
9.549484821036458e-05,1.0,0.6551167368888855,0.8799999952316284,9.999999747378752e-05
7.785562047502026e-05,1.0,0.6510612368583679,0.8799999952316284,9.999999747378752e-05
6.534285057568923e-05,1.0,0.6503949761390686,0.8700000047683716,9.999999747378752e-05
3.672360980999656e-05,1.0,0.6508672833442688,0.8700000047683716,9.999999747378752e-05
3.156906313961372e-05,1.0,0.6525750160217285,0.8799999952316284,9.999999747378752e-05
0.00015521283785346895,1.0,0.6569260954856873,0.8799999952316284,9.999999747378752e-05
9.621537174098194e-05,1.0,0.6662229895591736,0.8799999952316284,9.999999747378752e-05
5.7358363847015426e-05,1.0,0.6672548651695251,0.8799999952316284,9.999999747378752e-05
7.453210128005594e-05,1.0,0.6682537794113159,0.8799999952316284,9.999999747378752e-05
5.845090345246717e-05,1.0,0.6687486171722412,0.8799999952316284,9.999999747378752e-05
0.00011327569518471137,1.0,0.6701104044914246,0.8799999952316284,9.999999747378752e-05
7.08317311364226e-05,1.0,0.6707862615585327,0.8799999952316284,9.999999747378752e-05
0.0003849485074169934,1.0,0.7383634448051453,0.8600000143051147,9.999999747378752e-05
5.7853572798194364e-05,1.0,0.7673431634902954,0.8600000143051147,9.999999747378752e-05
9.026959742186591e-05,1.0,0.7577214241027832,0.8600000143051147,9.999999747378752e-05
0.0009099900489673018,1.0,0.700886070728302,0.8799999952316284,9.999999747378752e-05
0.00020999991102144122,1.0,0.5925712585449219,0.8700000047683716,9.999999747378752e-05
9.733987099025398e-05,1.0,0.6035268902778625,0.8600000143051147,9.999999747378752e-05
0.00010656731319613755,1.0,0.5975819230079651,0.8600000143051147,9.999999747378752e-05
9.794034849619493e-05,1.0,0.5941373109817505,0.8700000047683716,9.999999747378752e-05
8.898852684069425e-05,1.0,0.5998821258544922,0.8700000047683716,9.999999747378752e-05
5.5512784456368536e-05,1.0,0.6086942553520203,0.8700000047683716,9.999999747378752e-05
6.024015965522267e-05,1.0,0.6179859042167664,0.8799999952316284,9.999999747378752e-05
0.00011853058822453022,1.0,0.6291124224662781,0.8700000047683716,9.999999747378752e-05
8.589554636273533e-05,1.0,0.6394547820091248,0.8700000047683716,9.999999747378752e-05
0.0001376571599394083,1.0,0.6463742256164551,0.8799999952316284,9.999999747378752e-05
0.00042476062662899494,1.0,0.7137327790260315,0.8700000047683716,9.999999747378752e-05
0.00016210309695452452,1.0,0.7423837184906006,0.8600000143051147,9.999999747378752e-05
6.767261220375076e-05,1.0,0.7420605421066284,0.8600000143051147,9.999999747378752e-05
5.694548963219859e-05,1.0,0.725419282913208,0.8600000143051147,9.999999747378752e-05
0.00013434927677735686,1.0,0.7083035111427307,0.8700000047683716,9.999999747378752e-05
0.00014980525884311646,1.0,0.6852369904518127,0.8799999952316284,9.999999747378752e-05
0.00010474214650457725,1.0,0.6701774597167969,0.8799999952316284,9.999999747378752e-05
4.3691321479855105e-05,1.0,0.6643071174621582,0.8799999952316284,9.999999747378752e-05
5.4070897022029385e-05,1.0,0.6651760935783386,0.8799999952316284,9.999999747378752e-05
1.9587792849051766e-05,1.0,0.665480375289917,0.8799999952316284,9.999999747378752e-05
0.0002015681384364143,1.0,0.6795642971992493,0.8799999952316284,9.999999747378752e-05
0.00017314076831098646,1.0,0.6875055432319641,0.8799999952316284,9.999999747378752e-05
2.830282028298825e-05,1.0,0.6868958473205566,0.8799999952316284,9.999999747378752e-05
5.5744214478181675e-05,1.0,0.6840822696685791,0.8799999952316284,9.999999747378752e-05
3.2345000363420695e-05,1.0,0.6805983781814575,0.8799999952316284,9.999999747378752e-05
0.00022820827143732458,1.0,0.6731098890304565,0.8799999952316284,9.999999747378752e-05
5.4720338084734976e-05,1.0,0.6507946252822876,0.8700000047683716,9.999999747378752e-05
5.184237670619041e-05,1.0,0.6439849138259888,0.8799999952316284,9.999999747378752e-05
7.956344779813662e-05,1.0,0.6433099508285522,0.8799999952316284,9.999999747378752e-05
4.135793642490171e-05,1.0,0.6445832848548889,0.8799999952316284,9.999999747378752e-05
3.087033474002965e-05,1.0,0.6461029052734375,0.8700000047683716,9.999999747378752e-05
3.042951902898494e-05,1.0,0.6476062536239624,0.8700000047683716,9.999999747378752e-05
0.0001592313637956977,1.0,0.6582119464874268,0.8799999952316284,9.999999747378752e-05
6.779377144994214e-05,1.0,0.6678466796875,0.8799999952316284,9.999999747378752e-05
5.58529827685561e-05,1.0,0.6699017882347107,0.8799999952316284,9.999999747378752e-05
6.762280827388167e-05,1.0,0.6708987951278687,0.8799999952316284,9.999999747378752e-05
1.8579265088192187e-05,1.0,0.6699501872062683,0.8799999952316284,9.999999747378752e-05
0.00013388106890488416,1.0,0.670853853225708,0.8799999952316284,9.999999747378752e-05
4.137695941608399e-05,1.0,0.6688032746315002,0.8799999952316284,9.999999747378752e-05
0.0002929195179603994,1.0,0.6653488278388977,0.8799999952316284,9.999999747378752e-05
0.00012061852612532675,1.0,0.6681941151618958,0.8799999952316284,9.999999747378752e-05
9.312157635577023e-05,1.0,0.6677179932594299,0.8799999952316284,9.999999747378752e-05
8.360752690350637e-05,1.0,0.67657870054245,0.8799999952316284,9.999999747378752e-05
2.146978658856824e-05,1.0,0.6802642345428467,0.8799999952316284,9.999999747378752e-05
0.00014674136764369905,1.0,0.6778092980384827,0.8799999952316284,9.999999747378752e-05
4.041530701215379e-05,1.0,0.6772186160087585,0.8799999952316284,9.999999747378752e-05
9.403060539625585e-05,1.0,0.6693730354309082,0.8799999952316284,9.999999747378752e-05
0.00011408534919610247,1.0,0.6560285687446594,0.8799999952316284,9.999999747378752e-05
0.0001427296519977972,1.0,0.6526975035667419,0.8799999952316284,9.999999747378752e-05
0.000101594312582165,1.0,0.6772767901420593,0.8799999952316284,9.999999747378752e-05
6.527637015096843e-05,1.0,0.686514139175415,0.8799999952316284,9.999999747378752e-05
3.785774242714979e-05,1.0,0.687429666519165,0.8799999952316284,9.999999747378752e-05
3.1331685022450984e-05,1.0,0.6832179427146912,0.8799999952316284,9.999999747378752e-05
1.8194243239122443e-05,1.0,0.6814970374107361,0.8799999952316284,9.999999747378752e-05
0.0002140403666999191,1.0,0.695427656173706,0.8799999952316284,9.999999747378752e-05
2.6693083782447502e-05,1.0,0.7021328210830688,0.8799999952316284,9.999999747378752e-05
3.261387610109523e-05,1.0,0.7010397911071777,0.8799999952316284,9.999999747378752e-05
0.00011168966011609882,1.0,0.6861675977706909,0.8799999952316284,9.999999747378752e-05
6.19267302681692e-05,1.0,0.6800850629806519,0.8799999952316284,9.999999747378752e-05
0.0003323159471619874,1.0,0.6780636310577393,0.8799999952316284,9.999999747378752e-05
6.865156319690868e-05,1.0,0.6823904514312744,0.8799999952316284,9.999999747378752e-05
3.498901060083881e-05,1.0,0.6813843250274658,0.8799999952316284,9.999999747378752e-05
2.5112674848060124e-05,1.0,0.6777742505073547,0.8799999952316284,9.999999747378752e-05
4.8041656555142254e-05,1.0,0.674807608127594,0.8799999952316284,9.999999747378752e-05
6.461489829234779e-05,1.0,0.6746654510498047,0.8799999952316284,9.999999747378752e-05
2.4459592168568633e-05,1.0,0.6737357974052429,0.8799999952316284,9.999999747378752e-05
0.0003686306590680033,1.0,0.6799473762512207,0.8799999952316284,9.999999747378752e-05
2.6839383281185292e-05,1.0,0.687764585018158,0.8700000047683716,9.999999747378752e-05
0.00012218535994179547,1.0,0.6790329813957214,0.8799999952316284,9.999999747378752e-05
0.00020212333765812218,1.0,0.6615358591079712,0.8799999952316284,9.999999747378752e-05
3.8278012652881444e-05,1.0,0.6575344800949097,0.8799999952316284,9.999999747378752e-05
3.949314486817457e-05,1.0,0.6595625281333923,0.8799999952316284,9.999999747378752e-05
2.5092092982959002e-05,1.0,0.6636647582054138,0.8799999952316284,9.999999747378752e-05
0.00021987708169035614,1.0,0.6823794841766357,0.8799999952316284,9.999999747378752e-05
8.454844646621495e-05,1.0,0.6940062046051025,0.8799999952316284,9.999999747378752e-05
0.00011705698125297204,1.0,0.6925860643386841,0.8799999952316284,9.999999747378752e-05
0.0005428709555417299,1.0,0.673037052154541,0.8799999952316284,9.999999747378752e-05
0.0001234395313076675,1.0,0.6171330809593201,0.8899999856948853,9.999999747378752e-05
0.0005825922125950456,1.0,0.7544797658920288,0.8700000047683716,9.999999747378752e-05
0.00010319460852770135,1.0,0.8555052876472473,0.8700000047683716,9.999999747378752e-05
4.201575939077884e-05,1.0,0.8635133504867554,0.8700000047683716,9.999999747378752e-05
8.883580449037254e-05,1.0,0.815834105014801,0.8700000047683716,9.999999747378752e-05
6.19184211245738e-05,1.0,0.7755416035652161,0.8700000047683716,9.999999747378752e-05
9.781893459148705e-05,1.0,0.7561752200126648,0.8700000047683716,9.999999747378752e-05
7.970821752678603e-05,1.0,0.7329344153404236,0.8700000047683716,9.999999747378752e-05
7.032368739601225e-05,1.0,0.7189999222755432,0.8700000047683716,9.999999747378752e-05
0.0004001938796136528,1.0,0.6963204741477966,0.8799999952316284,9.999999747378752e-05
4.9647685955278575e-05,1.0,0.6614524722099304,0.8899999856948853,9.999999747378752e-05
0.0002402005484327674,1.0,0.6700523495674133,0.8899999856948853,9.999999747378752e-05
