loss,accuracy,val_loss,val_accuracy,lr
0.7265370488166809,0.800000011920929,1.3263851404190063,0.3535555601119995,0.0010000000474974513
0.35152366757392883,0.9179999828338623,1.44766104221344,0.35333332419395447,0.0010000000474974513
0.3144949972629547,0.9240000247955322,1.5462967157363892,0.03866666555404663,0.0010000000474974513
0.29709646105766296,0.9259999990463257,1.570670247077942,0.019111111760139465,0.0010000000474974513
0.2709518373012543,0.9300000071525574,1.7670795917510986,0.019111111760139465,0.0010000000474974513
0.24590156972408295,0.9319999814033508,1.836769700050354,0.019777778536081314,0.0010000000474974513
0.22359995543956757,0.9319999814033508,1.6312708854675293,0.04911111295223236,0.0010000000474974513
0.22924195230007172,0.9359999895095825,1.408782958984375,0.08933333307504654,0.0010000000474974513
0.2047051042318344,0.9380000233650208,1.3743550777435303,0.20933333039283752,0.0010000000474974513
0.20362329483032227,0.9399999976158142,1.212141513824463,0.33799999952316284,0.0010000000474974513
0.19947804510593414,0.9480000138282776,0.4100480377674103,0.9128888845443726,0.0010000000474974513
0.19668883085250854,0.9440000057220459,1.0925397872924805,0.5533333420753479,0.0010000000474974513
0.18875721096992493,0.9440000057220459,0.3846572935581207,0.9191111326217651,0.0010000000474974513
0.2195606827735901,0.9359999895095825,0.319210410118103,0.9306666851043701,0.0010000000474974513
0.18108685314655304,0.9539999961853027,0.27546456456184387,0.9351111054420471,0.0010000000474974513
0.19597983360290527,0.9440000057220459,0.25137972831726074,0.9340000152587891,0.0010000000474974513
0.18506135046482086,0.9520000219345093,0.2571355104446411,0.9293333292007446,0.0010000000474974513
0.17455922067165375,0.9539999961853027,0.2504078149795532,0.9328888654708862,0.0010000000474974513
0.175859734416008,0.9480000138282776,0.22869452834129333,0.9368888735771179,0.0010000000474974513
0.16337119042873383,0.9520000219345093,0.3265199065208435,0.9191111326217651,0.0010000000474974513
0.15516610443592072,0.9520000219345093,0.25035732984542847,0.9333333373069763,0.0010000000474974513
0.1529363989830017,0.949999988079071,0.2777537405490875,0.9346666932106018,0.0010000000474974513
0.1587522178888321,0.9539999961853027,0.25078752636909485,0.9377777576446533,0.0010000000474974513
0.15494301915168762,0.9539999961853027,0.23835620284080505,0.9395555257797241,0.0010000000474974513
0.14305026829242706,0.9639999866485596,0.27176082134246826,0.9346666932106018,0.0010000000474974513
0.137079119682312,0.9620000123977661,0.23811183869838715,0.9397777915000916,0.0010000000474974513
0.1306404024362564,0.9599999785423279,0.3432767689228058,0.921999990940094,0.0010000000474974513
0.13693751394748688,0.9599999785423279,0.32147493958473206,0.9217777848243713,0.0010000000474974513
0.1664237380027771,0.9559999704360962,0.2616806924343109,0.9333333373069763,0.0010000000474974513
0.14481031894683838,0.9520000219345093,0.3014822006225586,0.9355555772781372,0.0010000000474974513
0.13395585119724274,0.9620000123977661,0.24397607147693634,0.9413333535194397,0.0010000000474974513
0.1352044939994812,0.9599999785423279,0.31552934646606445,0.93022221326828,0.0010000000474974513
0.14676865935325623,0.9580000042915344,0.40699195861816406,0.898888885974884,0.0010000000474974513
0.12318528443574905,0.9559999704360962,0.24938131868839264,0.9359999895095825,0.0010000000474974513
0.1451507955789566,0.9539999961853027,0.2950555086135864,0.937333345413208,0.0010000000474974513
0.1494245082139969,0.9520000219345093,0.7625992298126221,0.7926666736602783,0.0010000000474974513
0.21353475749492645,0.949999988079071,2.0116875171661377,0.4655555486679077,0.0010000000474974513
0.17466823756694794,0.9539999961853027,0.24690589308738708,0.9386666417121887,0.0010000000474974513
0.1388588845729828,0.9620000123977661,0.28310322761535645,0.9348888993263245,0.0010000000474974513
0.13787204027175903,0.9580000042915344,0.25693878531455994,0.9359999895095825,0.0010000000474974513
0.1414930820465088,0.9559999704360962,0.401284784078598,0.909333348274231,0.0010000000474974513
0.12662136554718018,0.9539999961853027,0.24035294353961945,0.9433333277702332,0.0010000000474974513
0.11845068633556366,0.9620000123977661,0.24058116972446442,0.9386666417121887,0.0010000000474974513
0.11594671756029129,0.9620000123977661,0.2578692138195038,0.9397777915000916,0.0010000000474974513
0.11312070488929749,0.9620000123977661,0.2588275074958801,0.9377777576446533,0.0010000000474974513
0.11903627216815948,0.9660000205039978,0.28877192735671997,0.937333345413208,0.0010000000474974513
0.10681462287902832,0.9700000286102295,0.243848979473114,0.9399999976158142,0.0010000000474974513
0.13864439725875854,0.9580000042915344,0.3560228943824768,0.9195555448532104,0.0010000000474974513
0.13443110883235931,0.9539999961853027,0.2677069902420044,0.9404444694519043,0.0010000000474974513
0.11729028075933456,0.9679999947547913,0.2667226791381836,0.9362221956253052,0.0010000000474974513
0.11035038530826569,0.9660000205039978,0.24110685288906097,0.9437777996063232,0.0010000000474974513
0.10602716356515884,0.9660000205039978,0.2758505344390869,0.9319999814033508,0.0010000000474974513
0.10203545540571213,0.9700000286102295,0.25061583518981934,0.9424444437026978,0.0010000000474974513
0.11160288006067276,0.9679999947547913,0.251095712184906,0.9426666498184204,0.0010000000474974513
0.10893649607896805,0.9660000205039978,0.26190006732940674,0.9431111216545105,0.0010000000474974513
0.09955361485481262,0.9739999771118164,0.2525123953819275,0.9388889074325562,0.0010000000474974513
0.09536696970462799,0.9679999947547913,0.267358660697937,0.9375555515289307,0.0010000000474974513
0.11245755106210709,0.9700000286102295,0.23753772675991058,0.9397777915000916,0.0010000000474974513
0.1816062480211258,0.9440000057220459,0.4434291422367096,0.9182222485542297,0.0010000000474974513
0.1434846669435501,0.9599999785423279,0.29007208347320557,0.9368888735771179,0.0010000000474974513
0.12375926971435547,0.9660000205039978,0.3717365860939026,0.9075555801391602,0.0010000000474974513
0.10646756738424301,0.9660000205039978,0.2520693838596344,0.9424444437026978,0.0010000000474974513
0.1072019636631012,0.972000002861023,0.3662959933280945,0.9179999828338623,0.0010000000474974513
0.10360461473464966,0.9660000205039978,0.40679168701171875,0.9028888940811157,0.0010000000474974513
0.10505294799804688,0.9679999947547913,0.36893120408058167,0.9237777590751648,0.0010000000474974513
0.09349553287029266,0.9739999771118164,0.23191970586776733,0.9428889155387878,0.0010000000474974513
0.10046276450157166,0.9700000286102295,0.4652895927429199,0.8942221999168396,0.0010000000474974513
0.11520553380250931,0.9639999866485596,0.26766711473464966,0.9393333196640015,0.0010000000474974513
0.09735681861639023,0.9700000286102295,0.2586073577404022,0.9382222294807434,0.0010000000474974513
0.08692071586847305,0.9779999852180481,0.26303303241729736,0.9424444437026978,0.0010000000474974513
0.08280810713768005,0.9739999771118164,0.33993858098983765,0.8999999761581421,0.0010000000474974513
0.09262631833553314,0.9739999771118164,0.3481353521347046,0.898888885974884,0.0010000000474974513
0.0933232381939888,0.9739999771118164,0.2497081160545349,0.9422222375869751,0.0010000000474974513
0.0930553525686264,0.972000002861023,0.4521167278289795,0.8479999899864197,0.0010000000474974513
0.1301158368587494,0.9599999785423279,0.29988160729408264,0.9440000057220459,0.0010000000474974513
0.08493950963020325,0.9739999771118164,0.2471974790096283,0.9440000057220459,0.0010000000474974513
0.08205299824476242,0.9760000109672546,0.3459925949573517,0.9222221970558167,0.0010000000474974513
0.08574772626161575,0.9739999771118164,0.3066016137599945,0.9304444193840027,0.0010000000474974513
0.0802014023065567,0.9760000109672546,0.2580367624759674,0.9344444274902344,0.0010000000474974513
0.08739731460809708,0.9739999771118164,0.24058766663074493,0.9404444694519043,0.0010000000474974513
0.07924196869134903,0.9760000109672546,0.2506110966205597,0.9453333616256714,0.0010000000474974513
0.07513231784105301,0.9779999852180481,0.2925579249858856,0.9313333630561829,0.0010000000474974513
0.08842141181230545,0.9760000109672546,0.25201448798179626,0.9424444437026978,0.0010000000474974513
0.07852869480848312,0.9739999771118164,0.34464484453201294,0.9242222309112549,0.0010000000474974513
0.08262547105550766,0.9760000109672546,0.29265689849853516,0.9397777915000916,0.0010000000474974513
0.07339179515838623,0.9800000190734863,0.3228965401649475,0.9275555610656738,0.0010000000474974513
0.12090438604354858,0.9639999866485596,0.28708764910697937,0.9388889074325562,0.0010000000474974513
0.0981014221906662,0.972000002861023,0.29468604922294617,0.9306666851043701,0.0010000000474974513
0.08761675655841827,0.9779999852180481,0.27404966950416565,0.9453333616256714,0.0010000000474974513
0.07963187247514725,0.9800000190734863,0.2800515294075012,0.9431111216545105,0.0010000000474974513
0.09847041219472885,0.9679999947547913,0.4305208921432495,0.9182222485542297,0.0010000000474974513
0.14744135737419128,0.9599999785423279,0.3574046790599823,0.9275555610656738,0.0010000000474974513
0.11269468814134598,0.9700000286102295,0.36418652534484863,0.9157778024673462,0.0010000000474974513
0.09581688791513443,0.9660000205039978,0.325623482465744,0.9415555596351624,0.0010000000474974513
0.08135338127613068,0.9739999771118164,0.2581791579723358,0.9402222037315369,0.0010000000474974513
0.08792300522327423,0.9679999947547913,0.28938373923301697,0.9413333535194397,0.0010000000474974513
0.09386911243200302,0.972000002861023,0.3348444104194641,0.9293333292007446,0.0010000000474974513
0.08140595257282257,0.9760000109672546,0.2697894871234894,0.9399999976158142,0.0010000000474974513
0.08504807204008102,0.972000002861023,0.2838537395000458,0.9362221956253052,0.0010000000474974513
0.07963673770427704,0.9779999852180481,0.2715833783149719,0.9384444355964661,0.0010000000474974513
0.07586019486188889,0.9800000190734863,0.293581485748291,0.9426666498184204,0.0010000000474974513
0.06356680393218994,0.9779999852180481,0.24578893184661865,0.9424444437026978,0.0010000000474974513
0.06478246301412582,0.9819999933242798,0.24938760697841644,0.9422222375869751,0.0010000000474974513
0.0663943812251091,0.9779999852180481,0.31218457221984863,0.9442222118377686,0.0010000000474974513
0.05801974609494209,0.9800000190734863,0.2925470769405365,0.9435555338859558,0.0010000000474974513
0.06625761836767197,0.9819999933242798,0.3056298494338989,0.9437777996063232,0.0010000000474974513
0.08003144711256027,0.9739999771118164,0.2654849588871002,0.9422222375869751,0.0010000000474974513
0.07589185982942581,0.9739999771118164,0.28310054540634155,0.9382222294807434,0.0010000000474974513
0.06701210141181946,0.9800000190734863,0.297594279050827,0.9368888735771179,0.0010000000474974513
0.06501685082912445,0.9779999852180481,0.2739289700984955,0.9384444355964661,0.0010000000474974513
0.0641980841755867,0.9819999933242798,0.2847450375556946,0.9446666836738586,0.0010000000474974513
0.05838129296898842,0.984000027179718,0.34272274374961853,0.9111111164093018,0.0010000000474974513
0.056293077766895294,0.9860000014305115,0.3368660509586334,0.9295555353164673,0.0010000000474974513
0.06851826608181,0.9819999933242798,0.40621018409729004,0.9333333373069763,0.0010000000474974513
0.0750238299369812,0.9779999852180481,0.32850542664527893,0.940666675567627,0.0010000000474974513
0.060486722737550735,0.9819999933242798,0.2925267815589905,0.9277777671813965,0.0010000000474974513
0.07413402199745178,0.984000027179718,0.314092755317688,0.9431111216545105,0.0010000000474974513
0.060813769698143005,0.9800000190734863,0.5503462553024292,0.7684444189071655,0.0010000000474974513
0.060624025762081146,0.9819999933242798,0.2676542401313782,0.9426666498184204,0.0010000000474974513
0.0598507784307003,0.9800000190734863,0.28837040066719055,0.9375555515289307,0.0010000000474974513
0.06500381976366043,0.9819999933242798,0.3295897841453552,0.9431111216545105,0.0010000000474974513
0.08743495494127274,0.972000002861023,0.35871025919914246,0.9271110892295837,0.0010000000474974513
0.07562270760536194,0.9779999852180481,0.35642820596694946,0.941777765750885,0.0010000000474974513
0.06574627012014389,0.9800000190734863,0.2879779040813446,0.9433333277702332,0.0010000000474974513
0.06199090927839279,0.9819999933242798,0.33214518427848816,0.921999990940094,0.0010000000474974513
0.05773640796542168,0.9800000190734863,0.2852114140987396,0.9413333535194397,0.0010000000474974513
0.05719496309757233,0.9819999933242798,0.2943485677242279,0.9355555772781372,0.0010000000474974513
0.056896012276411057,0.9819999933242798,0.31976914405822754,0.9315555691719055,0.0010000000474974513
0.05857015401124954,0.9860000014305115,0.3160182535648346,0.9395555257797241,0.0010000000474974513
0.05707674100995064,0.9879999756813049,0.32781127095222473,0.9348888993263245,0.0010000000474974513
0.06024486944079399,0.9739999771118164,0.9581116437911987,0.6797778010368347,0.0010000000474974513
0.08900964260101318,0.972000002861023,0.4915621280670166,0.9364444613456726,0.0010000000474974513
0.07306049019098282,0.9760000109672546,0.4218199551105499,0.9277777671813965,0.0010000000474974513
0.061570905148983,0.9800000190734863,0.30016615986824036,0.9457777738571167,0.0010000000474974513
0.051679156720638275,0.9860000014305115,0.2824922204017639,0.9404444694519043,0.0010000000474974513
0.04830164834856987,0.9879999756813049,0.29786598682403564,0.9315555691719055,0.0010000000474974513
0.050747621804475784,0.9879999756813049,0.33702072501182556,0.9253333210945129,0.0010000000474974513
0.054409220814704895,0.9819999933242798,0.28704720735549927,0.941777765750885,0.0010000000474974513
0.07652835547924042,0.9760000109672546,0.418556809425354,0.8846666812896729,0.0010000000474974513
0.08352043479681015,0.9800000190734863,0.3560028374195099,0.9284444451332092,0.0010000000474974513
0.07723858207464218,0.9760000109672546,0.3172840476036072,0.9397777915000916,0.0010000000474974513
0.06246957182884216,0.9800000190734863,0.2735408544540405,0.9426666498184204,0.0010000000474974513
0.04983879253268242,0.984000027179718,0.2886088788509369,0.9422222375869751,0.0010000000474974513
0.04916922748088837,0.9879999756813049,0.29277199506759644,0.941777765750885,0.0010000000474974513
0.06915950030088425,0.9819999933242798,0.39834457635879517,0.9068889021873474,0.0010000000474974513
0.04612837731838226,0.9860000014305115,0.31259578466415405,0.9388889074325562,0.0010000000474974513
0.038589488714933395,0.9900000095367432,0.4066973328590393,0.8897777795791626,0.0010000000474974513
0.06694020330905914,0.9819999933242798,0.3150559365749359,0.9391111135482788,0.0010000000474974513
0.0670899748802185,0.9779999852180481,0.38899973034858704,0.9444444179534912,0.0010000000474974513
0.04977192357182503,0.984000027179718,0.3263024091720581,0.9293333292007446,0.0010000000474974513
0.05408928543329239,0.984000027179718,0.29496243596076965,0.9442222118377686,0.0010000000474974513
0.04662875458598137,0.9860000014305115,0.29492729902267456,0.9393333196640015,0.0010000000474974513
0.045063287019729614,0.9900000095367432,0.31017637252807617,0.9368888735771179,0.0010000000474974513
0.042432256042957306,0.9879999756813049,0.32981979846954346,0.9415555596351624,0.0010000000474974513
0.03477845713496208,0.9919999837875366,0.4015997648239136,0.9428889155387878,0.0010000000474974513
0.04905467480421066,0.984000027179718,0.387325644493103,0.9351111054420471,0.0010000000474974513
0.04543565958738327,0.9819999933242798,0.30646446347236633,0.9371111392974854,0.0010000000474974513
0.047001224011182785,0.9800000190734863,0.5273512601852417,0.7993333339691162,0.0010000000474974513
0.057898011058568954,0.9779999852180481,0.440958708524704,0.8904444575309753,0.0010000000474974513
0.04050648584961891,0.9879999756813049,0.2962840497493744,0.9440000057220459,0.0010000000474974513
0.03365015238523483,0.9900000095367432,0.29326358437538147,0.9388889074325562,0.0010000000474974513
0.03924928978085518,0.9900000095367432,0.36771753430366516,0.9415555596351624,0.0010000000474974513
0.03183496743440628,0.9879999756813049,0.3113624155521393,0.9404444694519043,0.0010000000474974513
0.03159288316965103,0.9919999837875366,0.34753984212875366,0.9357777833938599,0.0010000000474974513
0.0392061322927475,0.9879999756813049,0.3996537923812866,0.8846666812896729,0.0010000000474974513
0.03508990630507469,0.9879999756813049,0.39353328943252563,0.9388889074325562,0.0010000000474974513
0.03388312831521034,0.9900000095367432,0.37368467450141907,0.933555543422699,0.0010000000474974513
0.038819294422864914,0.9860000014305115,0.40631523728370667,0.9368888735771179,0.0010000000474974513
0.04653521254658699,0.984000027179718,0.4619055390357971,0.8633333444595337,0.0010000000474974513
0.03341003507375717,0.9900000095367432,0.3421218991279602,0.9279999732971191,0.0010000000474974513
0.06472994387149811,0.9860000014305115,0.4132470190525055,0.9397777915000916,0.0010000000474974513
0.08228558301925659,0.972000002861023,0.595536470413208,0.894444465637207,0.0010000000474974513
0.08261977136135101,0.972000002861023,0.7988764047622681,0.852222204208374,0.0010000000474974513
0.0936664342880249,0.9660000205039978,1.2923133373260498,0.6817777752876282,0.0010000000474974513
0.05480164662003517,0.984000027179718,0.403818279504776,0.8955555558204651,0.0010000000474974513
0.05005987733602524,0.9879999756813049,0.2973552644252777,0.9380000233650208,0.0010000000474974513
0.045332856476306915,0.9860000014305115,0.3298012912273407,0.9422222375869751,0.0010000000474974513
0.03833102062344551,0.9879999756813049,0.305886834859848,0.9244444370269775,0.0010000000474974513
0.07275086641311646,0.9819999933242798,0.46627581119537354,0.9382222294807434,0.0010000000474974513
0.04698249697685242,0.984000027179718,0.3007655143737793,0.9328888654708862,0.0010000000474974513
0.05675024166703224,0.984000027179718,0.4604654908180237,0.9037777781486511,0.0010000000474974513
0.0412023589015007,0.9900000095367432,0.3798145353794098,0.9413333535194397,0.0010000000474974513
0.032819412648677826,0.9900000095367432,0.3135795593261719,0.9355555772781372,0.0010000000474974513
0.04153640568256378,0.9900000095367432,0.34987977147102356,0.9391111135482788,0.0010000000474974513
0.0341850183904171,0.9919999837875366,0.3265330195426941,0.9384444355964661,0.0010000000474974513
0.02875649742782116,0.9959999918937683,0.31690940260887146,0.9359999895095825,0.0010000000474974513
0.02606707252562046,0.9900000095367432,0.35666751861572266,0.9382222294807434,0.0010000000474974513
0.028483839705586433,0.9940000176429749,0.34185606241226196,0.940666675567627,0.0010000000474974513
0.02419230155646801,0.9940000176429749,0.3984359800815582,0.9440000057220459,0.0010000000474974513
0.03342558443546295,0.9919999837875366,0.545296847820282,0.8102222084999084,0.0010000000474974513
0.03745291382074356,0.9919999837875366,0.4775022268295288,0.9419999718666077,0.0010000000474974513
0.043519675731658936,0.984000027179718,0.34718000888824463,0.9088888764381409,0.0010000000474974513
0.046223606914281845,0.9879999756813049,0.5313578248023987,0.9375555515289307,0.0010000000474974513
0.04337595775723457,0.9919999837875366,0.46108919382095337,0.9337777495384216,0.0010000000474974513
0.030758609995245934,0.9900000095367432,0.3821214437484741,0.941777765750885,0.0010000000474974513
0.03264351189136505,0.9919999837875366,0.354484885931015,0.9375555515289307,0.0010000000474974513
0.02892773039638996,0.9940000176429749,0.39021071791648865,0.8980000019073486,0.0010000000474974513
0.042029403150081635,0.9819999933242798,0.45380106568336487,0.925777792930603,0.0010000000474974513
0.03532266616821289,0.9900000095367432,0.38321971893310547,0.940666675567627,0.0010000000474974513
0.05822527036070824,0.9800000190734863,0.34050455689430237,0.9319999814033508,0.0010000000474974513
0.044570233672857285,0.9919999837875366,0.33782461285591125,0.9453333616256714,0.0010000000474974513
0.035927556455135345,0.9860000014305115,0.3191220164299011,0.9448888897895813,0.0010000000474974513
0.022928297519683838,0.9940000176429749,0.3538822531700134,0.9371111392974854,0.0010000000474974513
0.03761008754372597,0.9900000095367432,0.40515998005867004,0.9375555515289307,0.0010000000474974513
0.023658333346247673,0.9940000176429749,0.386518657207489,0.9117777943611145,0.0010000000474974513
0.02512068673968315,0.9940000176429749,0.36118531227111816,0.9208889007568359,0.0010000000474974513
0.02095021679997444,0.9940000176429749,0.36516210436820984,0.9402222037315369,0.0010000000474974513
0.02233297750353813,0.9940000176429749,0.34890079498291016,0.9415555596351624,0.0010000000474974513
0.018524805083870888,0.9980000257492065,0.3660723865032196,0.9397777915000916,0.0010000000474974513
0.02102372981607914,0.9959999918937683,0.34725430607795715,0.9295555353164673,0.0010000000474974513
0.014400417916476727,0.9959999918937683,0.3515958786010742,0.9395555257797241,0.0010000000474974513
0.014673732221126556,0.9959999918937683,0.39743536710739136,0.9135555624961853,0.0010000000474974513
0.01895332708954811,0.9980000257492065,0.5151628851890564,0.9391111135482788,0.0010000000474974513
0.034962307661771774,0.9860000014305115,0.4330947697162628,0.9179999828338623,0.0010000000474974513
0.10055170953273773,0.9660000205039978,4.383090019226074,0.5908889174461365,0.0010000000474974513
0.11956095695495605,0.9700000286102295,0.3672391474246979,0.9391111135482788,0.0010000000474974513
0.07660025358200073,0.9760000109672546,0.3770677447319031,0.9382222294807434,0.0010000000474974513
0.045680541545152664,0.9900000095367432,0.30585184693336487,0.9353333115577698,0.0010000000474974513
0.03592623025178909,0.9900000095367432,0.31543973088264465,0.941777765750885,0.0010000000474974513
0.02578018233180046,0.9959999918937683,0.29817670583724976,0.9393333196640015,0.0010000000474974513
0.029530534520745277,0.9919999837875366,0.31071704626083374,0.9315555691719055,0.0010000000474974513
0.0276276133954525,0.9919999837875366,0.3072532117366791,0.9442222118377686,0.0010000000474974513
0.020178567618131638,0.9940000176429749,0.3625575304031372,0.9426666498184204,0.0010000000474974513
0.028965039178729057,0.9900000095367432,0.43733012676239014,0.9002222418785095,0.0010000000474974513
0.02277774177491665,0.9940000176429749,0.35241439938545227,0.9391111135482788,0.0010000000474974513
0.015319443307816982,0.9959999918937683,0.3484497666358948,0.9362221956253052,0.0010000000474974513
0.025210389867424965,0.9919999837875366,0.3932633697986603,0.9144444465637207,0.0010000000474974513
0.03325166180729866,0.9919999837875366,0.3908855617046356,0.9179999828338623,0.0010000000474974513
0.02756347507238388,0.9919999837875366,0.35692498087882996,0.9424444437026978,0.0010000000474974513
0.014890102669596672,0.9980000257492065,0.4018198251724243,0.9428889155387878,0.0010000000474974513
0.021578434854745865,0.9900000095367432,0.3592117726802826,0.9295555353164673,0.0010000000474974513
0.02024039626121521,0.9980000257492065,0.35925546288490295,0.9382222294807434,0.0010000000474974513
0.014224537648260593,0.9980000257492065,0.38137587904930115,0.9426666498184204,0.0010000000474974513
0.025116894394159317,0.9940000176429749,0.4885770380496979,0.9402222037315369,0.0010000000474974513
0.015799418091773987,0.9980000257492065,0.645783543586731,0.8013333082199097,0.0010000000474974513
0.013132382184267044,0.9959999918937683,0.39507734775543213,0.9391111135482788,0.0010000000474974513
0.007547191344201565,1.0,0.4500140845775604,0.9415555596351624,0.0010000000474974513
0.010807442478835583,0.9980000257492065,0.42247965931892395,0.9440000057220459,0.0010000000474974513
0.03158528730273247,0.9900000095367432,0.3801296353340149,0.9337777495384216,0.0010000000474974513
0.08046955615282059,0.9700000286102295,0.608798623085022,0.8766666650772095,0.0010000000474974513
0.08248239010572433,0.9760000109672546,0.5043821334838867,0.9364444613456726,0.0010000000474974513
0.06878039985895157,0.9819999933242798,0.7181390523910522,0.9328888654708862,0.0010000000474974513
0.05770137161016464,0.9779999852180481,0.3528359532356262,0.9408888816833496,0.0010000000474974513
0.0361439548432827,0.984000027179718,0.37328773736953735,0.9446666836738586,0.0010000000474974513
0.041874147951602936,0.9800000190734863,0.4804229736328125,0.8613333106040955,0.0010000000474974513
0.03089071437716484,0.9900000095367432,0.3384307026863098,0.9348888993263245,0.0010000000474974513
0.02432716265320778,0.9940000176429749,0.3383818566799164,0.9231111407279968,0.0010000000474974513
0.014786530286073685,0.9980000257492065,0.4003341794013977,0.8913333415985107,0.0010000000474974513
0.015676137059926987,0.9959999918937683,0.41384822130203247,0.9442222118377686,0.0010000000474974513
0.014720529317855835,0.9980000257492065,0.4104168117046356,0.8886666893959045,0.0010000000474974513
0.010381869040429592,1.0,0.34571322798728943,0.9228888750076294,0.0010000000474974513
0.02037428691983223,0.9959999918937683,0.3715949058532715,0.9440000057220459,0.0010000000474974513
0.014864525757730007,0.9959999918937683,0.3758484423160553,0.9204444289207458,0.0010000000474974513
0.01616724766790867,0.9980000257492065,0.42513298988342285,0.9428889155387878,0.0010000000474974513
0.021772125735878944,0.9940000176429749,0.406616747379303,0.9435555338859558,0.0010000000474974513
0.01914522424340248,0.9919999837875366,0.3570263683795929,0.9408888816833496,0.0010000000474974513
0.0097005944699049,0.9980000257492065,0.39834094047546387,0.9386666417121887,0.0010000000474974513
0.010629686526954174,0.9980000257492065,0.3725213408470154,0.9308888912200928,0.0010000000474974513
0.0089898481965065,0.9980000257492065,0.3986069858074188,0.9388889074325562,0.0010000000474974513
0.012849942781031132,0.9959999918937683,0.3838960528373718,0.9377777576446533,0.0010000000474974513
0.053965974599123,0.9800000190734863,0.6627913117408752,0.8722222447395325,0.0010000000474974513
0.1245584711432457,0.9580000042915344,0.8965325951576233,0.9100000262260437,0.0010000000474974513
0.10446756333112717,0.9660000205039978,0.5277660489082336,0.937333345413208,0.0010000000474974513
0.06246211752295494,0.9779999852180481,0.38212525844573975,0.93022221326828,0.0010000000474974513
0.038607630878686905,0.9879999756813049,0.5130208730697632,0.9086666703224182,0.0010000000474974513
0.030066393315792084,0.9860000014305115,0.3416118919849396,0.9397777915000916,0.0010000000474974513
0.01808304339647293,0.9940000176429749,0.31328290700912476,0.9419999718666077,0.0010000000474974513
0.014248864725232124,1.0,0.36696138978004456,0.9440000057220459,0.0010000000474974513
0.016865361481904984,0.9919999837875366,0.34039995074272156,0.9428889155387878,0.0010000000474974513
0.014592539519071579,0.9959999918937683,0.3603704571723938,0.9422222375869751,0.0010000000474974513
0.019711552187800407,0.9919999837875366,0.47522687911987305,0.9399999976158142,0.0010000000474974513
0.01933896727859974,0.9980000257492065,0.4095512330532074,0.9351111054420471,0.0010000000474974513
0.0157704446464777,0.9959999918937683,0.4715457856655121,0.9393333196640015,0.0010000000474974513
0.013122795149683952,0.9980000257492065,0.42601779103279114,0.9077777862548828,0.0010000000474974513
0.010407421737909317,1.0,0.3700076639652252,0.9395555257797241,0.0010000000474974513
0.010451353155076504,0.9959999918937683,0.3801575303077698,0.9408888816833496,0.0010000000474974513
0.006203330121934414,1.0,0.4159698486328125,0.9411110877990723,0.0010000000474974513
0.007367667276412249,1.0,0.43155354261398315,0.9422222375869751,0.0010000000474974513
0.00903481338173151,0.9980000257492065,0.4250616729259491,0.9422222375869751,0.0010000000474974513
0.010281524620950222,0.9959999918937683,0.4376133978366852,0.9108889102935791,0.0010000000474974513
0.04978393390774727,0.984000027179718,2.1421313285827637,0.660444438457489,0.0010000000474974513
0.03188581019639969,0.9860000014305115,0.8033728003501892,0.768666684627533,0.0010000000474974513
0.020006198436021805,0.9940000176429749,0.35447439551353455,0.9204444289207458,0.0010000000474974513
0.013422212563455105,0.9959999918937683,0.43283650279045105,0.9402222037315369,0.0010000000474974513
0.008618809282779694,0.9980000257492065,0.43810153007507324,0.9415555596351624,0.0010000000474974513
0.008045257069170475,1.0,0.4093190133571625,0.9437777996063232,0.0010000000474974513
0.005550437141209841,1.0,0.44753608107566833,0.9424444437026978,0.0010000000474974513
0.004113370086997747,1.0,0.42054101824760437,0.9408888816833496,0.0010000000474974513
0.005982737988233566,0.9980000257492065,0.4253816604614258,0.9426666498184204,0.0010000000474974513
0.008336984552443027,1.0,0.5101134181022644,0.9424444437026978,0.0010000000474974513
0.006989800836890936,1.0,0.39681339263916016,0.9353333115577698,0.0010000000474974513
0.015818163752555847,0.9940000176429749,0.4591120779514313,0.9411110877990723,0.0010000000474974513
0.1690034419298172,0.9599999785423279,1.5115371942520142,0.6846666932106018,0.0010000000474974513
0.08682358264923096,0.9760000109672546,0.5277374386787415,0.937333345413208,0.0010000000474974513
0.07570911198854446,0.9779999852180481,0.39060401916503906,0.9293333292007446,0.0010000000474974513
0.05374111980199814,0.9819999933242798,0.3296585977077484,0.9340000152587891,0.0010000000474974513
0.03275248035788536,0.9900000095367432,0.31035470962524414,0.9393333196640015,0.0010000000474974513
0.017295705154538155,0.9959999918937683,0.3152957856655121,0.9415555596351624,0.0010000000474974513
0.03051542118191719,0.9900000095367432,0.34557196497917175,0.9391111135482788,0.0010000000474974513
0.044243454933166504,0.984000027179718,0.464656263589859,0.9395555257797241,0.0010000000474974513
0.03359174728393555,0.984000027179718,0.35353922843933105,0.9384444355964661,0.0010000000474974513
0.011138483881950378,0.9980000257492065,0.3456878662109375,0.9393333196640015,0.0010000000474974513
0.011626540683209896,0.9980000257492065,0.3846539258956909,0.9173333048820496,0.0010000000474974513
0.013428824953734875,0.9959999918937683,0.361891508102417,0.9293333292007446,0.0010000000474974513
0.02130063995718956,0.9940000176429749,0.34233516454696655,0.9391111135482788,0.0010000000474974513
0.04976930096745491,0.9800000190734863,0.4253775179386139,0.929111123085022,0.0010000000474974513
0.04126277565956116,0.9940000176429749,0.3883945047855377,0.9231111407279968,0.0010000000474974513
0.016327260062098503,0.9940000176429749,0.35552871227264404,0.9419999718666077,0.0010000000474974513
0.011248931288719177,0.9980000257492065,0.3760547339916229,0.9419999718666077,0.0010000000474974513
0.01084316335618496,1.0,0.36429086327552795,0.9415555596351624,0.0010000000474974513
0.007742122747004032,1.0,0.4159981608390808,0.9431111216545105,0.0010000000474974513
0.0062605878338217735,1.0,0.3840813934803009,0.9364444613456726,0.0010000000474974513
0.006807932164520025,1.0,0.4068320393562317,0.9402222037315369,0.0010000000474974513
0.00507050845772028,1.0,0.4223167598247528,0.941777765750885,0.0010000000474974513
0.0028302872087806463,1.0,0.4110836982727051,0.9362221956253052,0.0010000000474974513
0.00331878662109375,1.0,0.4158649742603302,0.9397777915000916,0.0010000000474974513
0.005359717644751072,1.0,0.42648208141326904,0.9413333535194397,0.0010000000474974513
0.004660790786147118,1.0,0.4378446042537689,0.9397777915000916,0.0010000000474974513
0.00316486693918705,1.0,0.4312874376773834,0.9366666674613953,0.0010000000474974513
0.002893812023103237,1.0,0.42080503702163696,0.9375555515289307,0.0010000000474974513
0.0029168648179620504,1.0,0.4352620542049408,0.9380000233650208,0.0010000000474974513
0.007146289572119713,1.0,0.45062029361724854,0.9408888816833496,0.0010000000474974513
0.023443054407835007,0.9919999837875366,0.4269099235534668,0.925777792930603,0.0010000000474974513
0.21148456633090973,0.9359999895095825,2.6098685264587402,0.6297777891159058,0.0010000000474974513
0.09535109996795654,0.9700000286102295,0.6368876695632935,0.9324444532394409,0.0010000000474974513
0.06695994734764099,0.9800000190734863,0.5234928727149963,0.8531110882759094,0.0010000000474974513
0.040947794914245605,0.9879999756813049,0.36135661602020264,0.9355555772781372,0.0010000000474974513
0.026425175368785858,0.9940000176429749,0.3523657023906708,0.9424444437026978,0.0010000000474974513
0.02810589224100113,0.9940000176429749,0.35315394401550293,0.9386666417121887,0.0010000000474974513
0.01789274998009205,0.9980000257492065,0.3916373550891876,0.9431111216545105,0.0010000000474974513
0.015995217487215996,0.9959999918937683,0.39806994795799255,0.9413333535194397,0.0010000000474974513
0.012893237173557281,0.9959999918937683,0.3729403614997864,0.9366666674613953,0.0010000000474974513
0.015625102445483208,0.9959999918937683,0.3758956789970398,0.9308888912200928,0.0010000000474974513
0.01190954353660345,0.9959999918937683,0.3757690489292145,0.9344444274902344,0.0010000000474974513
0.007110360078513622,1.0,0.4424270689487457,0.9426666498184204,0.0010000000474974513
0.007620425429195166,1.0,0.4216083288192749,0.9431111216545105,0.0010000000474974513
0.007498986087739468,0.9980000257492065,0.396874338388443,0.9295555353164673,0.0010000000474974513
0.004282153211534023,1.0,0.4353983998298645,0.9404444694519043,0.0010000000474974513
0.010318825952708721,0.9959999918937683,0.45855751633644104,0.940666675567627,0.0010000000474974513
0.007093495223671198,0.9980000257492065,0.4405677914619446,0.9404444694519043,0.0010000000474974513
0.005440717563033104,1.0,0.4269820749759674,0.9377777576446533,0.0010000000474974513
0.017130063846707344,0.9919999837875366,0.5821448564529419,0.9273333549499512,0.0010000000474974513
0.02522166073322296,0.9940000176429749,0.731824517250061,0.8146666884422302,0.0010000000474974513
0.024611933156847954,0.9900000095367432,0.4395776689052582,0.9433333277702332,0.0010000000474974513
0.01327146403491497,0.9959999918937683,0.4142744839191437,0.9328888654708862,0.0010000000474974513
0.00953206792473793,0.9980000257492065,0.45483776926994324,0.9342222213745117,0.0010000000474974513
0.008437244221568108,0.9980000257492065,0.4070243239402771,0.9342222213745117,0.0010000000474974513
0.006436391267925501,1.0,0.47094228863716125,0.9442222118377686,0.0010000000474974513
0.007652071304619312,1.0,0.41030728816986084,0.9333333373069763,0.0010000000474974513
0.004879382438957691,1.0,0.4618096649646759,0.9433333277702332,0.0010000000474974513
0.0027316948398947716,1.0,0.4341318905353546,0.9399999976158142,0.0010000000474974513
0.0027535089757293463,1.0,0.4151458740234375,0.9348888993263245,0.0010000000474974513
0.0033541801385581493,1.0,0.4437401592731476,0.9411110877990723,0.0010000000474974513
0.002122533740475774,1.0,0.46507546305656433,0.9411110877990723,0.0010000000474974513
0.004403469152748585,1.0,0.4267863631248474,0.9333333373069763,0.0010000000474974513
0.002057890873402357,1.0,0.43670740723609924,0.9393333196640015,0.0010000000474974513
0.003985380753874779,1.0,0.4420575797557831,0.9388889074325562,0.0010000000474974513
0.008200142532587051,0.9959999918937683,0.45681244134902954,0.9353333115577698,0.0010000000474974513
0.007129494100809097,1.0,0.48282572627067566,0.9397777915000916,0.0010000000474974513
0.012293853797018528,0.9940000176429749,0.8831759095191956,0.7873333096504211,0.0010000000474974513
0.016108868643641472,0.9900000095367432,0.5596262216567993,0.9419999718666077,0.0010000000474974513
0.01656673662364483,0.9919999837875366,0.441681832075119,0.9228888750076294,0.0010000000474974513
0.017057862132787704,0.9959999918937683,0.421565443277359,0.9382222294807434,0.0010000000474974513
0.006255625281482935,0.9980000257492065,0.4971940517425537,0.9422222375869751,0.0010000000474974513
0.003916471730917692,1.0,0.46561354398727417,0.9433333277702332,0.0010000000474974513
0.003282012417912483,1.0,0.49070313572883606,0.9422222375869751,0.0010000000474974513
0.002010936150327325,1.0,0.46447765827178955,0.9404444694519043,0.0010000000474974513
0.0018092916579917073,1.0,0.4588715136051178,0.9393333196640015,0.0010000000474974513
0.0013284293236210942,1.0,0.44293662905693054,0.9371111392974854,0.0010000000474974513
0.0015554034616798162,1.0,0.45745351910591125,0.9391111135482788,0.0010000000474974513
0.0013128468999639153,1.0,0.45574814081192017,0.9393333196640015,0.0010000000474974513
0.0012713313335552812,1.0,0.4783289432525635,0.940666675567627,0.0010000000474974513
0.0010942000662907958,1.0,0.46549105644226074,0.9395555257797241,0.0010000000474974513
0.001222970080561936,1.0,0.4498284161090851,0.9368888735771179,0.0010000000474974513
0.0018289820291101933,1.0,0.48362305760383606,0.9408888816833496,0.0010000000474974513
0.0020145692396909,1.0,0.45561084151268005,0.9353333115577698,0.0010000000474974513
0.0015552749391645193,1.0,0.46602973341941833,0.9397777915000916,0.0010000000474974513
0.0009499538573436439,1.0,0.46150222420692444,0.9395555257797241,0.0010000000474974513
0.0011038195807486773,1.0,0.4588980972766876,0.929111123085022,0.0010000000474974513
0.0013818525476381183,1.0,0.5125004053115845,0.9428889155387878,0.0010000000474974513
0.001072768121957779,1.0,0.4714549779891968,0.9346666932106018,0.0010000000474974513
0.0012683727545663714,1.0,0.4612596035003662,0.9340000152587891,0.0010000000474974513
0.0014027238357812166,1.0,0.5033312439918518,0.9408888816833496,0.0010000000474974513
0.004522213712334633,1.0,0.48892056941986084,0.9428889155387878,0.0010000000474974513
0.004051021300256252,1.0,0.5080644488334656,0.9368888735771179,0.0010000000474974513
0.004285432863980532,1.0,0.6943997740745544,0.8506666421890259,0.0010000000474974513
0.003326683770865202,1.0,0.5148895382881165,0.9428889155387878,0.0010000000474974513
0.001790407462976873,1.0,0.4789133667945862,0.9384444355964661,0.0010000000474974513
0.0010581319220364094,1.0,0.4790653884410858,0.9382222294807434,0.0010000000474974513
0.00100463698618114,1.0,0.4622708261013031,0.9346666932106018,0.0010000000474974513
0.005021220073103905,1.0,0.47207823395729065,0.9411110877990723,0.0010000000474974513
0.017309041693806648,0.9959999918937683,0.5240635275840759,0.9397777915000916,0.0010000000474974513
0.011750816367566586,0.9959999918937683,1.097393274307251,0.9311110973358154,0.0010000000474974513
0.025971626862883568,0.9940000176429749,2.013441801071167,0.6555555462837219,0.0010000000474974513
0.01782364398241043,0.9959999918937683,0.4015160799026489,0.9319999814033508,0.0010000000474974513
0.01194947212934494,0.9959999918937683,0.4070799946784973,0.9208889007568359,0.0010000000474974513
0.006876782979816198,0.9980000257492065,0.47867220640182495,0.9442222118377686,0.0010000000474974513
0.01579049602150917,0.9940000176429749,0.5849067568778992,0.9404444694519043,0.0010000000474974513
0.019983423873782158,0.9900000095367432,0.5451502799987793,0.9375555515289307,0.0010000000474974513
0.031795039772987366,0.9919999837875366,0.44977185130119324,0.9413333535194397,0.0010000000474974513
0.10290588438510895,0.9679999947547913,2.568950653076172,0.8068888783454895,0.0010000000474974513
0.08522624522447586,0.972000002861023,0.5589497089385986,0.9322222471237183,0.0010000000474974513
0.0661025270819664,0.9760000109672546,0.501646101474762,0.9226666688919067,0.0010000000474974513
0.030962688848376274,0.9919999837875366,0.35014086961746216,0.9426666498184204,0.0010000000474974513
0.028279712423682213,0.9919999837875366,0.32159286737442017,0.9391111135482788,0.0010000000474974513
0.03262791410088539,0.9879999756813049,0.3792554438114166,0.9079999923706055,0.0010000000474974513
0.022659974172711372,0.9919999837875366,0.3403615355491638,0.9377777576446533,0.0010000000474974513
0.04004506394267082,0.984000027179718,0.37240979075431824,0.9286666512489319,0.0010000000474974513
0.03131697699427605,0.9900000095367432,0.4897119104862213,0.8706666827201843,0.0010000000474974513
0.014768533408641815,0.9919999837875366,0.41740894317626953,0.9091110825538635,0.0010000000474974513
0.00933923851698637,0.9980000257492065,0.4913894236087799,0.8786666393280029,0.0010000000474974513
0.012961230240762234,0.9980000257492065,0.39955297112464905,0.9273333549499512,0.0010000000474974513
0.011034402996301651,0.9959999918937683,0.49917903542518616,0.8886666893959045,0.0010000000474974513
0.010705693624913692,0.9980000257492065,0.5157002806663513,0.8722222447395325,0.0010000000474974513
0.004178585018962622,1.0,0.4396709203720093,0.9026666879653931,0.0010000000474974513
0.003918118309229612,1.0,0.39870789647102356,0.9333333373069763,0.0010000000474974513
0.012183465994894505,0.9959999918937683,0.45745953917503357,0.9397777915000916,0.0010000000474974513
0.024869747459888458,0.9879999756813049,2.4304215908050537,0.6100000143051147,0.0010000000474974513
0.02389594353735447,0.9879999756813049,0.3700149655342102,0.9399999976158142,0.0010000000474974513
0.00786955002695322,0.9980000257492065,0.4659895896911621,0.8966666460037231,0.0010000000474974513
0.014395341277122498,0.9940000176429749,0.49385344982147217,0.8837777972221375,0.0010000000474974513
0.015070592984557152,0.9959999918937683,0.5594419836997986,0.8668888807296753,0.0010000000474974513
0.019513485953211784,0.9959999918937683,0.45193377137184143,0.9415555596351624,0.0010000000474974513
0.007573768496513367,0.9980000257492065,0.4079992175102234,0.9371111392974854,0.0010000000474974513
0.0037291464395821095,1.0,0.41395390033721924,0.9340000152587891,0.0010000000474974513
0.0022578032221645117,1.0,0.4191673994064331,0.9388889074325562,0.0010000000474974513
0.002232783241197467,1.0,0.418437659740448,0.9386666417121887,0.0010000000474974513
0.002009308198466897,1.0,0.4273562431335449,0.9364444613456726,0.0010000000474974513
0.0023113118950277567,1.0,0.43527814745903015,0.9382222294807434,0.0005000000237487257
0.001375848427414894,1.0,0.445508748292923,0.9397777915000916,0.0005000000237487257
0.0016308481572195888,1.0,0.4572050869464874,0.9408888816833496,0.0005000000237487257
0.0017158754635602236,1.0,0.4503287672996521,0.9366666674613953,0.0005000000237487257
0.001098480075597763,1.0,0.45277535915374756,0.9388889074325562,0.0005000000237487257
0.0009601406054571271,1.0,0.46127817034721375,0.9413333535194397,0.0005000000237487257
0.0012333682971075177,1.0,0.4563956558704376,0.9391111135482788,0.0005000000237487257
0.0014187783235684037,1.0,0.463394433259964,0.9411110877990723,0.0005000000237487257
0.001103828428313136,1.0,0.4684149920940399,0.9402222037315369,0.0005000000237487257
0.0014816827606409788,1.0,0.46445202827453613,0.940666675567627,0.0005000000237487257
0.001052592066116631,1.0,0.4576289653778076,0.9402222037315369,0.0005000000237487257
0.0010410990798845887,1.0,0.4687652885913849,0.941777765750885,0.0005000000237487257
0.0008602955495007336,1.0,0.47020864486694336,0.9419999718666077,0.0005000000237487257
0.0013714790111407638,1.0,0.4759044051170349,0.9419999718666077,0.0005000000237487257
0.0009531524265184999,1.0,0.4707375168800354,0.9399999976158142,0.0005000000237487257
0.007555479649454355,0.9980000257492065,0.4605187177658081,0.9380000233650208,0.0005000000237487257
0.00606294721364975,1.0,0.4592379629611969,0.9153333306312561,0.0005000000237487257
0.006297205109149218,0.9980000257492065,0.46743401885032654,0.9091110825538635,0.0005000000237487257
0.003278388176113367,1.0,0.44757017493247986,0.925777792930603,0.0005000000237487257
0.00294076488353312,1.0,0.4293006956577301,0.9319999814033508,0.0005000000237487257
0.0019658806268125772,1.0,0.4300263524055481,0.925777792930603,0.0005000000237487257
0.0022740564309060574,1.0,0.4452880322933197,0.9246666431427002,0.0005000000237487257
0.0030357271898537874,1.0,0.4476436674594879,0.9426666498184204,0.0005000000237487257
0.002161858370527625,1.0,0.45356178283691406,0.9411110877990723,0.0005000000237487257
0.0011061298428103328,1.0,0.47800248861312866,0.9424444437026978,0.0005000000237487257
0.002550150966271758,1.0,0.4433014690876007,0.9388889074325562,0.0005000000237487257
0.008769350126385689,0.9980000257492065,0.5724622011184692,0.8762221932411194,0.0005000000237487257
0.002795100212097168,1.0,0.45503371953964233,0.9306666851043701,0.0005000000237487257
0.0018277360359206796,1.0,0.45329549908638,0.9386666417121887,0.0005000000237487257
0.00140696344897151,1.0,0.47929346561431885,0.9428889155387878,0.0005000000237487257
0.002802701201289892,1.0,0.47111350297927856,0.9413333535194397,0.0005000000237487257
0.005122711881995201,0.9980000257492065,0.5405778288841248,0.9428889155387878,0.0005000000237487257
0.04190228879451752,0.9879999756813049,0.5899282693862915,0.9315555691719055,0.0005000000237487257
0.009128192439675331,1.0,0.436580091714859,0.9364444613456726,0.0005000000237487257
0.005071650724858046,1.0,0.4279387891292572,0.9286666512489319,0.0005000000237487257
0.004995694383978844,0.9980000257492065,0.45956650376319885,0.9422222375869751,0.0005000000237487257
0.0015988389495760202,1.0,0.45110344886779785,0.9411110877990723,0.0005000000237487257
0.001915852539241314,1.0,0.47233739495277405,0.9424444437026978,0.0005000000237487257
0.0011896422365680337,1.0,0.48559504747390747,0.9431111216545105,0.0005000000237487257
0.0009548511588945985,1.0,0.48732995986938477,0.9422222375869751,0.0005000000237487257
0.010797418653964996,0.9940000176429749,0.49909669160842896,0.9246666431427002,0.0005000000237487257
0.004382853861898184,1.0,0.49032193422317505,0.9411110877990723,0.0005000000237487257
0.0018907374469563365,1.0,0.4744715094566345,0.933555543422699,0.0005000000237487257
0.0012257536873221397,1.0,0.4931112229824066,0.9419999718666077,0.0005000000237487257
0.0013196627842262387,1.0,0.5054463148117065,0.9422222375869751,0.0005000000237487257
0.0013332065427675843,1.0,0.490139365196228,0.9388889074325562,0.0005000000237487257
0.0006732668844051659,1.0,0.4981471300125122,0.940666675567627,0.0005000000237487257
0.0007170757744461298,1.0,0.5009169578552246,0.9408888816833496,0.0005000000237487257
0.0005777400219812989,1.0,0.508039116859436,0.9411110877990723,0.0005000000237487257
0.0005564911989495158,1.0,0.5128110647201538,0.9413333535194397,0.0005000000237487257
0.000564624962862581,1.0,0.49633365869522095,0.9395555257797241,0.0005000000237487257
0.00047099633957259357,1.0,0.4972967803478241,0.9395555257797241,0.0005000000237487257
0.002620329614728689,0.9980000257492065,0.49537283182144165,0.9402222037315369,0.0005000000237487257
0.017115768045186996,0.9959999918937683,0.552375853061676,0.9275555610656738,0.0005000000237487257
0.00495862727984786,0.9980000257492065,0.564214289188385,0.9362221956253052,0.0005000000237487257
0.004353870637714863,1.0,0.4705134630203247,0.9304444193840027,0.0005000000237487257
0.0016445519868284464,1.0,0.4700741171836853,0.9326666593551636,0.0005000000237487257
0.001388305681757629,1.0,0.4836517572402954,0.9377777576446533,0.0005000000237487257
0.0009781462140381336,1.0,0.49094048142433167,0.9388889074325562,0.0005000000237487257
0.0007847967208363116,1.0,0.4973970353603363,0.9368888735771179,0.0005000000237487257
0.012516225688159466,0.9959999918937683,0.4923795163631439,0.9304444193840027,0.0005000000237487257
0.03341149166226387,0.9860000014305115,0.500220537185669,0.8993333578109741,0.0005000000237487257
0.026664113625884056,0.9919999837875366,0.4498032331466675,0.9279999732971191,0.0005000000237487257
0.023800291121006012,0.9940000176429749,0.5527632832527161,0.941777765750885,0.0005000000237487257
0.03875209018588066,0.9900000095367432,0.6043165922164917,0.8628888726234436,0.0005000000237487257
0.011118154972791672,0.9940000176429749,0.4798579514026642,0.9413333535194397,0.0005000000237487257
0.004139615688472986,0.9980000257492065,0.46075060963630676,0.941777765750885,0.0005000000237487257
0.0028521509375423193,1.0,0.4700559377670288,0.9435555338859558,0.0005000000237487257
0.0020960927940905094,1.0,0.4907746911048889,0.9422222375869751,0.0005000000237487257
0.002413405803963542,1.0,0.46975699067115784,0.9426666498184204,0.0005000000237487257
0.0030186353251338005,1.0,0.457483172416687,0.9424444437026978,0.0005000000237487257
0.0013444095384329557,1.0,0.4576244056224823,0.941777765750885,0.0005000000237487257
0.0017497445223852992,1.0,0.4527572989463806,0.941777765750885,0.0005000000237487257
0.001136929146014154,1.0,0.4519837200641632,0.9386666417121887,0.0005000000237487257
0.0013299991842359304,1.0,0.4606623351573944,0.9413333535194397,0.0005000000237487257
0.0010731498477980494,1.0,0.4704459607601166,0.941777765750885,0.0005000000237487257
0.0012570541584864259,1.0,0.47751301527023315,0.941777765750885,0.0005000000237487257
0.0013855310389772058,1.0,0.4740326702594757,0.9422222375869751,0.0005000000237487257
0.0009281592792831361,1.0,0.4739089608192444,0.9424444437026978,0.0005000000237487257
0.0010952404700219631,1.0,0.5081296563148499,0.9440000057220459,0.0005000000237487257
0.0014824678655713797,1.0,0.47998085618019104,0.9415555596351624,0.0005000000237487257
0.0011363725643604994,1.0,0.4602007269859314,0.9399999976158142,0.0005000000237487257
0.0013882711064070463,1.0,0.4643162488937378,0.9408888816833496,0.0005000000237487257
0.0014047082513570786,1.0,0.4717061519622803,0.9402222037315369,0.0005000000237487257
0.008308786898851395,0.9959999918937683,0.49671533703804016,0.9413333535194397,0.0005000000237487257
0.0067496588453650475,0.9959999918937683,0.46287718415260315,0.925777792930603,0.0005000000237487257
0.0028918550815433264,1.0,0.49997997283935547,0.9437777996063232,0.0005000000237487257
0.0031014052219688892,1.0,0.4832436442375183,0.9117777943611145,0.0005000000237487257
0.0010723973391577601,1.0,0.4555646777153015,0.9348888993263245,0.0005000000237487257
0.0009731057216413319,1.0,0.46466580033302307,0.941777765750885,0.0005000000237487257
0.0006983749335631728,1.0,0.47593265771865845,0.9422222375869751,0.0005000000237487257
0.0007034195004962385,1.0,0.4786270558834076,0.9411110877990723,0.0005000000237487257
0.0007031162385828793,1.0,0.4878567159175873,0.9419999718666077,0.0005000000237487257
0.0007187987794168293,1.0,0.48127490282058716,0.9391111135482788,0.0005000000237487257
0.00041296740528196096,1.0,0.49649277329444885,0.9408888816833496,0.0005000000237487257
0.0006148882093839347,1.0,0.49844953417778015,0.9404444694519043,0.0005000000237487257
0.0008997619152069092,1.0,0.4968242645263672,0.9408888816833496,0.0005000000237487257
0.0007563006365671754,1.0,0.4978678822517395,0.9404444694519043,0.0005000000237487257
0.0005741678760387003,1.0,0.5143242478370667,0.9419999718666077,0.0005000000237487257
0.0006919844308868051,1.0,0.5134401917457581,0.9415555596351624,0.0005000000237487257
0.0006201500655151904,1.0,0.5157470107078552,0.9415555596351624,0.0005000000237487257
0.0012393868528306484,1.0,0.4845675528049469,0.9371111392974854,0.0005000000237487257
0.004153548739850521,1.0,0.4951700270175934,0.9375555515289307,0.0005000000237487257
0.0018160896142944694,1.0,0.4941524565219879,0.9395555257797241,0.0005000000237487257
0.0020621600560843945,1.0,0.5242804884910583,0.9408888816833496,0.0005000000237487257
0.0008246435318142176,1.0,0.4946293532848358,0.940666675567627,0.0005000000237487257
0.0005522231804206967,1.0,0.5015413165092468,0.9413333535194397,0.0005000000237487257
0.0009932389948517084,1.0,0.48593559861183167,0.9382222294807434,0.0005000000237487257
0.0007228610920719802,1.0,0.499490350484848,0.9408888816833496,0.0005000000237487257
0.000481282128021121,1.0,0.5130792856216431,0.9426666498184204,0.0005000000237487257
0.0006280078087002039,1.0,0.5055056810379028,0.9404444694519043,0.0005000000237487257
0.000672853144351393,1.0,0.5156627893447876,0.940666675567627,0.0005000000237487257
0.0005467348382808268,1.0,0.5417972803115845,0.9415555596351624,0.0005000000237487257
0.002268823329359293,1.0,0.4844483435153961,0.933555543422699,0.0005000000237487257
0.0008730780682526529,1.0,0.55584716796875,0.9422222375869751,0.0005000000237487257
0.00037597937625832856,1.0,0.5360286235809326,0.9422222375869751,0.0005000000237487257
0.00047200656263157725,1.0,0.5318318009376526,0.9424444437026978,0.0005000000237487257
0.000505590985994786,1.0,0.5184865593910217,0.9413333535194397,0.0005000000237487257
0.00034015701385214925,1.0,0.5058347582817078,0.9404444694519043,0.0005000000237487257
0.00032338357414118946,1.0,0.5162984728813171,0.9415555596351624,0.0005000000237487257
0.0004760395095217973,1.0,0.5164673328399658,0.9415555596351624,0.0005000000237487257
0.00043074850691482425,1.0,0.516321063041687,0.940666675567627,0.0005000000237487257
0.00040307114250026643,1.0,0.5226011872291565,0.9413333535194397,0.0005000000237487257
0.0015155237633734941,1.0,0.49620240926742554,0.9380000233650208,0.0005000000237487257
0.005065318662673235,1.0,0.6763518452644348,0.9386666417121887,0.0005000000237487257
0.0064487396739423275,0.9959999918937683,0.5112493634223938,0.9215555787086487,0.0005000000237487257
0.0013878411846235394,1.0,0.4881155490875244,0.9348888993263245,0.0005000000237487257
0.0011978605762124062,1.0,0.48790982365608215,0.9419999718666077,0.0005000000237487257
0.0007220939151011407,1.0,0.520665168762207,0.9428889155387878,0.0005000000237487257
0.0003683774557430297,1.0,0.5456965565681458,0.9433333277702332,0.0005000000237487257
0.0032750419341027737,0.9980000257492065,0.5237434506416321,0.941777765750885,0.0005000000237487257
0.05048658698797226,0.9819999933242798,0.7004969716072083,0.9393333196640015,0.0005000000237487257
0.038975026458501816,0.9919999837875366,0.4947753846645355,0.9237777590751648,0.0005000000237487257
0.002615974750369787,1.0,0.46406668424606323,0.9279999732971191,0.0005000000237487257
0.0036749050486832857,1.0,0.4787873327732086,0.9391111135482788,0.0005000000237487257
0.0018532454269006848,1.0,0.4877632260322571,0.9411110877990723,0.0005000000237487257
0.0023062308318912983,1.0,0.4732477068901062,0.9413333535194397,0.0005000000237487257
0.0012856724206358194,1.0,0.475163072347641,0.937333345413208,0.0005000000237487257
0.0013256747042760253,1.0,0.47272738814353943,0.9404444694519043,0.0005000000237487257
0.0015804508002474904,1.0,0.45594194531440735,0.9371111392974854,0.0005000000237487257
0.0010501907672733068,1.0,0.48333999514579773,0.941777765750885,0.0005000000237487257
0.0009528970695100725,1.0,0.4960809350013733,0.9415555596351624,0.0005000000237487257
0.0009063435718417168,1.0,0.504715621471405,0.941777765750885,0.0005000000237487257
0.0013296996476128697,1.0,0.4884849786758423,0.9364444613456726,0.0005000000237487257
0.001264807884581387,1.0,0.50287926197052,0.9413333535194397,0.0005000000237487257
0.0005505928420461714,1.0,0.515977680683136,0.9415555596351624,0.0002500000118743628
0.0008520970004610717,1.0,0.5222833752632141,0.9422222375869751,0.0002500000118743628
0.0007088048150762916,1.0,0.5183365345001221,0.9419999718666077,0.0002500000118743628
0.0006396454409696162,1.0,0.5224400162696838,0.9422222375869751,0.0002500000118743628
0.0010708727641031146,1.0,0.5208442807197571,0.9415555596351624,0.0002500000118743628
0.0004787884245160967,1.0,0.5225235819816589,0.9408888816833496,0.0002500000118743628
0.0003780632105190307,1.0,0.5204334855079651,0.9404444694519043,0.0002500000118743628
0.00039748946437612176,1.0,0.519884467124939,0.940666675567627,0.0002500000118743628
0.00044065547990612686,1.0,0.5210186243057251,0.9408888816833496,0.0002500000118743628
0.0006366116576828063,1.0,0.510467529296875,0.9382222294807434,0.0002500000118743628
0.00039254099829122424,1.0,0.5140491127967834,0.9386666417121887,0.0002500000118743628
0.000449775398010388,1.0,0.5218724012374878,0.9397777915000916,0.0002500000118743628
0.0011404039105400443,1.0,0.5246978998184204,0.9395555257797241,0.0002500000118743628
0.0003777423989959061,1.0,0.5440816283226013,0.9402222037315369,0.0002500000118743628
0.00039476665551774204,1.0,0.5352472066879272,0.9395555257797241,0.0002500000118743628
0.0005144356400705874,1.0,0.521720290184021,0.9391111135482788,0.0002500000118743628
0.0005258045857772231,1.0,0.520545244216919,0.9397777915000916,0.0002500000118743628
0.0004801130562555045,1.0,0.5200665593147278,0.9402222037315369,0.0002500000118743628
0.00043672704487107694,1.0,0.5215526819229126,0.9395555257797241,0.0002500000118743628
0.0003368822217453271,1.0,0.5179328918457031,0.9380000233650208,0.0002500000118743628
0.0005626577767543495,1.0,0.5216848254203796,0.9382222294807434,0.0002500000118743628
0.000793718732893467,1.0,0.5114126205444336,0.9368888735771179,0.0002500000118743628
0.0005164161557331681,1.0,0.5091023445129395,0.9377777576446533,0.0002500000118743628
0.00041647875332273543,1.0,0.5191143155097961,0.9395555257797241,0.0002500000118743628
0.000556754122953862,1.0,0.514629602432251,0.9386666417121887,0.0002500000118743628
0.00044084127875976264,1.0,0.5081257224082947,0.9380000233650208,0.0002500000118743628
0.000307303766021505,1.0,0.5063021183013916,0.9382222294807434,0.0002500000118743628
0.00035160864354111254,1.0,0.5094115734100342,0.9382222294807434,0.0002500000118743628
0.0010575082851573825,1.0,0.5042138695716858,0.9382222294807434,0.0002500000118743628
0.001927905366756022,1.0,0.4653455913066864,0.9304444193840027,0.0002500000118743628
0.0014574907254427671,1.0,0.485063761472702,0.9333333373069763,0.0002500000118743628
0.0006457729614339769,1.0,0.5015029907226562,0.9384444355964661,0.0002500000118743628
0.0004918624181300402,1.0,0.5107685327529907,0.9395555257797241,0.0002500000118743628
0.000869068899191916,1.0,0.5032532811164856,0.9364444613456726,0.0002500000118743628
0.0005686947260983288,1.0,0.4973030090332031,0.9353333115577698,0.0002500000118743628
0.00047197105595842004,1.0,0.5136669278144836,0.9411110877990723,0.0002500000118743628
0.0006291228928603232,1.0,0.5209788084030151,0.9411110877990723,0.0002500000118743628
0.0005357071058824658,1.0,0.5277175903320312,0.9395555257797241,0.0002500000118743628
0.0007794625707902014,1.0,0.5309758186340332,0.9411110877990723,0.0002500000118743628
0.0011889032321050763,1.0,0.5435689091682434,0.9388889074325562,0.0002500000118743628
0.0009280212107114494,1.0,0.5141580700874329,0.9411110877990723,0.0002500000118743628
0.001430013100616634,1.0,0.5503010153770447,0.940666675567627,0.0002500000118743628
0.0008226486970670521,1.0,0.5270271897315979,0.9411110877990723,0.0002500000118743628
0.00035310402745381,1.0,0.5259377956390381,0.9402222037315369,0.0002500000118743628
0.0008124971645884216,1.0,0.5213811993598938,0.9386666417121887,0.0002500000118743628
0.00031769322231411934,1.0,0.5199694633483887,0.9384444355964661,0.0002500000118743628
0.0003900298906955868,1.0,0.5280038714408875,0.9397777915000916,0.0002500000118743628
0.0004235668748151511,1.0,0.5183460116386414,0.9391111135482788,0.0002500000118743628
0.0002993000962305814,1.0,0.52623450756073,0.9399999976158142,0.0002500000118743628
0.0003012062516063452,1.0,0.5290302634239197,0.9395555257797241,0.0002500000118743628
0.00027654983568936586,1.0,0.5335605144500732,0.9395555257797241,0.0002500000118743628
0.0003384560695849359,1.0,0.5305221080780029,0.9393333196640015,0.0002500000118743628
0.00022539985366165638,1.0,0.5315586924552917,0.9393333196640015,0.0002500000118743628
0.0059081208892166615,0.9980000257492065,0.5491260290145874,0.9442222118377686,0.0002500000118743628
0.018838340416550636,0.9959999918937683,0.5493122935295105,0.9402222037315369,0.0002500000118743628
0.0014112550998106599,1.0,0.5646290183067322,0.9399999976158142,0.0002500000118743628
0.002695913426578045,1.0,0.5675916075706482,0.9395555257797241,0.0002500000118743628
0.0008850256563164294,1.0,0.5357640385627747,0.9395555257797241,0.0002500000118743628
0.0009469214710406959,1.0,0.5134719014167786,0.9395555257797241,0.0002500000118743628
0.000925246684346348,1.0,0.5007025003433228,0.9393333196640015,0.0002500000118743628
0.0007040085620246828,1.0,0.5037983059883118,0.9393333196640015,0.0002500000118743628
0.0005500971456058323,1.0,0.5016763210296631,0.9399999976158142,0.0002500000118743628
0.00048236531438305974,1.0,0.4997481107711792,0.9388889074325562,0.0002500000118743628
0.00033492769580334425,1.0,0.501781702041626,0.9399999976158142,0.0002500000118743628
0.000424140045652166,1.0,0.4993862807750702,0.9397777915000916,0.0002500000118743628
0.0005259623285382986,1.0,0.4977646470069885,0.9393333196640015,0.0002500000118743628
0.0009043871541507542,1.0,0.489118754863739,0.9364444613456726,0.0002500000118743628
0.00044083912507630885,1.0,0.4956917464733124,0.9384444355964661,0.0002500000118743628
0.00031999059137888253,1.0,0.4991357922554016,0.9388889074325562,0.0002500000118743628
0.00039363623363897204,1.0,0.4995052218437195,0.9384444355964661,0.0002500000118743628
0.00040925396024249494,1.0,0.5084400177001953,0.940666675567627,0.0002500000118743628
0.00022061793424654752,1.0,0.5115105509757996,0.9402222037315369,0.0002500000118743628
0.0004028165421914309,1.0,0.5120786428451538,0.9404444694519043,0.0002500000118743628
0.0003470883530098945,1.0,0.5157026648521423,0.9411110877990723,0.0002500000118743628
0.0004228871548548341,1.0,0.5129663944244385,0.9397777915000916,0.0002500000118743628
0.00048823279212228954,1.0,0.5119906663894653,0.9391111135482788,0.0002500000118743628
0.00041630471241660416,1.0,0.5122715830802917,0.9380000233650208,0.0002500000118743628
0.0002886382571887225,1.0,0.5155532956123352,0.9391111135482788,0.0001250000059371814
0.00032879607169888914,1.0,0.5194674134254456,0.9397777915000916,0.0001250000059371814
0.0002856025821529329,1.0,0.521384060382843,0.9402222037315369,0.0001250000059371814
0.00026442448142915964,1.0,0.5214023590087891,0.9404444694519043,0.0001250000059371814
0.0002103439619531855,1.0,0.5209940671920776,0.9404444694519043,0.0001250000059371814
0.0006864028982818127,1.0,0.5148183703422546,0.9399999976158142,0.0001250000059371814
0.0004111197486054152,1.0,0.504612147808075,0.9368888735771179,0.0001250000059371814
0.0003013506066054106,1.0,0.5129391551017761,0.9386666417121887,0.0001250000059371814
0.00031860507442615926,1.0,0.5182659029960632,0.9395555257797241,0.0001250000059371814
0.00025557848857715726,1.0,0.5231456756591797,0.9404444694519043,0.0001250000059371814
0.0009399309637956321,1.0,0.5192354321479797,0.9395555257797241,0.0001250000059371814
0.002934745280072093,1.0,0.5999807119369507,0.9393333196640015,0.0001250000059371814
0.0014090456534177065,1.0,0.5565956234931946,0.9386666417121887,0.0001250000059371814
0.0007235808880068362,1.0,0.5386720299720764,0.9382222294807434,0.0001250000059371814
0.0004579638480208814,1.0,0.5353965759277344,0.9380000233650208,0.0001250000059371814
0.0005179439904168248,1.0,0.5386095643043518,0.9391111135482788,0.0001250000059371814
0.00041632450302131474,1.0,0.533069908618927,0.9391111135482788,0.0001250000059371814
0.000318172387778759,1.0,0.5328683257102966,0.9393333196640015,0.0001250000059371814
0.0003582120989449322,1.0,0.5316210389137268,0.9393333196640015,0.0001250000059371814
0.00041223029256798327,1.0,0.5312877893447876,0.9395555257797241,0.0001250000059371814
0.0002381893718848005,1.0,0.5343568325042725,0.9399999976158142,0.0001250000059371814
0.00030365202110260725,1.0,0.534878134727478,0.9395555257797241,0.0001250000059371814
0.0002733228902798146,1.0,0.5332164168357849,0.9397777915000916,0.0001250000059371814
0.0001791922259144485,1.0,0.5310153961181641,0.9393333196640015,0.0001250000059371814
0.00025569205172359943,1.0,0.5308731198310852,0.9391111135482788,0.0001250000059371814
0.0002790027647279203,1.0,0.5288973450660706,0.9393333196640015,0.0001250000059371814
0.0002445892314426601,1.0,0.5297256708145142,0.9391111135482788,0.0001250000059371814
0.0006218421622179449,1.0,0.5139489769935608,0.9346666932106018,0.0001250000059371814
0.00045359221985563636,1.0,0.5143143534660339,0.9348888993263245,0.0001250000059371814
0.0002387363201705739,1.0,0.5215775966644287,0.9375555515289307,0.0001250000059371814
0.00027209531981498003,1.0,0.5275223851203918,0.9391111135482788,0.0001250000059371814
0.00026369080296717584,1.0,0.5320266485214233,0.9393333196640015,0.0001250000059371814
0.0002148093335563317,1.0,0.5296591520309448,0.9391111135482788,0.0001250000059371814
0.0002936184755526483,1.0,0.5329014658927917,0.9395555257797241,0.0001250000059371814
0.0013441250193864107,1.0,0.5388322472572327,0.9399999976158142,0.0001250000059371814
0.000701781886164099,1.0,0.602721095085144,0.9413333535194397,0.0001250000059371814
0.001111443154513836,1.0,0.5777918696403503,0.9386666417121887,0.0001250000059371814
0.00032154415384866297,1.0,0.5471779704093933,0.9386666417121887,0.0001250000059371814
0.0005568746128119528,1.0,0.5309270620346069,0.937333345413208,0.0001250000059371814
0.0003046852652914822,1.0,0.5216377377510071,0.9324444532394409,0.0001250000059371814
0.0003548380918800831,1.0,0.5147889256477356,0.9342222213745117,0.0001250000059371814
0.0003219098725821823,1.0,0.5155481696128845,0.9333333373069763,0.0001250000059371814
0.000309217837639153,1.0,0.5227059721946716,0.9366666674613953,0.0001250000059371814
0.00018691951117943972,1.0,0.5302878618240356,0.9368888735771179,0.0001250000059371814
0.0002274250437039882,1.0,0.5348461866378784,0.9377777576446533,0.0001250000059371814
0.00019326088658999652,1.0,0.5366893410682678,0.9377777576446533,0.0001250000059371814
0.00024979052250273526,1.0,0.535677969455719,0.9375555515289307,0.0001250000059371814
0.00019000125757884234,1.0,0.5359592437744141,0.9375555515289307,0.0001250000059371814
0.0001982462126761675,1.0,0.5361146330833435,0.9382222294807434,0.0001250000059371814
0.0003765410801861435,1.0,0.5389648675918579,0.9382222294807434,0.0001250000059371814
0.0002615382254589349,1.0,0.5407644510269165,0.9375555515289307,0.0001250000059371814
0.0002796094340737909,1.0,0.5371367931365967,0.9366666674613953,0.0001250000059371814
0.0002482167328707874,1.0,0.5415354371070862,0.9380000233650208,0.0001250000059371814
0.00027267957921139896,1.0,0.5453149676322937,0.9395555257797241,0.0001250000059371814
0.0001943094248417765,1.0,0.5428399443626404,0.9391111135482788,0.0001250000059371814
0.000666121777612716,1.0,0.5381267070770264,0.9382222294807434,0.0001250000059371814
0.00020008090359624475,1.0,0.5380422472953796,0.9384444355964661,0.0001250000059371814
0.00017694898997433484,1.0,0.5385017991065979,0.9380000233650208,0.0001250000059371814
0.00018478020501788706,1.0,0.5426068305969238,0.9391111135482788,0.0001250000059371814
0.0004576572391670197,1.0,0.5336196422576904,0.9368888735771179,0.0001250000059371814
0.0004132903413847089,1.0,0.5353158116340637,0.9377777576446533,0.0001250000059371814
0.00015425893070641905,1.0,0.5393893122673035,0.9391111135482788,0.0001250000059371814
0.0002338341437280178,1.0,0.5385019183158875,0.9391111135482788,0.0001250000059371814
0.0002420842065475881,1.0,0.5403738617897034,0.9391111135482788,0.0001250000059371814
0.0002513649524189532,1.0,0.5452397465705872,0.9399999976158142,0.0001250000059371814
0.00019247847376391292,1.0,0.5425015091896057,0.9395555257797241,0.0001250000059371814
0.0001235498784808442,1.0,0.5417088270187378,0.9391111135482788,0.0001250000059371814
0.00025960462517105043,1.0,0.542462170124054,0.9388889074325562,0.0001250000059371814
0.00016216261428780854,1.0,0.5439640879631042,0.9391111135482788,0.0001250000059371814
0.0001380340981995687,1.0,0.5456550121307373,0.9399999976158142,0.0001250000059371814
0.00014565797755494714,1.0,0.5436915755271912,0.9388889074325562,0.0001250000059371814
0.00019736021931748837,1.0,0.5449467301368713,0.9397777915000916,0.0001250000059371814
0.00015116958820726722,1.0,0.5441884398460388,0.9395555257797241,0.0001250000059371814
0.002974332543089986,0.9980000257492065,0.5273211598396301,0.9342222213745117,0.0001250000059371814
0.00725064380094409,0.9980000257492065,0.9331694841384888,0.8028888702392578,9.999999747378752e-05
0.003343749325722456,0.9980000257492065,0.5060505270957947,0.9284444451332092,9.999999747378752e-05
0.0008402860839851201,1.0,0.5118312239646912,0.9362221956253052,9.999999747378752e-05
0.0006260182708501816,1.0,0.5225537419319153,0.9371111392974854,9.999999747378752e-05
0.004172530025243759,0.9980000257492065,0.5307662487030029,0.9377777576446533,9.999999747378752e-05
0.0006616524187847972,1.0,0.6006600856781006,0.940666675567627,9.999999747378752e-05
0.0005985501338727772,1.0,0.583347737789154,0.9411110877990723,9.999999747378752e-05
0.0006710116285830736,1.0,0.5624694228172302,0.9411110877990723,9.999999747378752e-05
0.0007587939617224038,1.0,0.553816556930542,0.9411110877990723,9.999999747378752e-05
0.0005205238121561706,1.0,0.542235255241394,0.9393333196640015,9.999999747378752e-05
0.00038834966835565865,1.0,0.5412693023681641,0.9388889074325562,9.999999747378752e-05
0.0005150345386937261,1.0,0.5406757593154907,0.9386666417121887,9.999999747378752e-05
0.000315533863613382,1.0,0.5376185178756714,0.9386666417121887,9.999999747378752e-05
0.0005482341512106359,1.0,0.5382046699523926,0.9391111135482788,9.999999747378752e-05
0.0003163520304951817,1.0,0.5379024744033813,0.9391111135482788,9.999999747378752e-05
0.00036098682903684676,1.0,0.5357025861740112,0.9391111135482788,9.999999747378752e-05
0.0003454862453509122,1.0,0.5361234545707703,0.9386666417121887,9.999999747378752e-05
0.0002794178726617247,1.0,0.5369487404823303,0.9393333196640015,9.999999747378752e-05
0.0004065636021550745,1.0,0.5420724749565125,0.9397777915000916,9.999999747378752e-05
0.00036595051642507315,1.0,0.539038360118866,0.9395555257797241,9.999999747378752e-05
0.00037203755346126854,1.0,0.5353402495384216,0.9388889074325562,9.999999747378752e-05
0.00045209572999738157,1.0,0.5367082357406616,0.9384444355964661,9.999999747378752e-05
0.0002696727169677615,1.0,0.5333130955696106,0.9377777576446533,9.999999747378752e-05
0.0002558735432103276,1.0,0.5326914191246033,0.9380000233650208,9.999999747378752e-05
0.0003251041634939611,1.0,0.5321784019470215,0.9382222294807434,9.999999747378752e-05
0.0003653600288089365,1.0,0.5304160118103027,0.9380000233650208,9.999999747378752e-05
0.0002721051569096744,1.0,0.5251609086990356,0.9377777576446533,9.999999747378752e-05
0.00022969623387325555,1.0,0.5270983576774597,0.9377777576446533,9.999999747378752e-05
0.00029904820257797837,1.0,0.5287153124809265,0.9384444355964661,9.999999747378752e-05
0.0002541863068472594,1.0,0.5292837023735046,0.9384444355964661,9.999999747378752e-05
0.00020668079378083348,1.0,0.525281548500061,0.9386666417121887,9.999999747378752e-05
0.00021167231898289174,1.0,0.5274070501327515,0.9386666417121887,9.999999747378752e-05
0.0021031643263995647,0.9980000257492065,0.5208271741867065,0.9386666417121887,9.999999747378752e-05
0.0003290449094492942,1.0,0.5040334463119507,0.9268888831138611,9.999999747378752e-05
0.0005021811812184751,1.0,0.4983716309070587,0.9331111311912537,9.999999747378752e-05
0.00025997450575232506,1.0,0.5034723281860352,0.9342222213745117,9.999999747378752e-05
0.001677784021012485,1.0,0.5254758596420288,0.9386666417121887,9.999999747378752e-05
0.0017397438641637564,1.0,0.648046612739563,0.9404444694519043,9.999999747378752e-05
0.0009002701845020056,1.0,0.6219564080238342,0.9397777915000916,9.999999747378752e-05
0.0006993612041696906,1.0,0.5771979093551636,0.9393333196640015,9.999999747378752e-05
0.001019708113744855,1.0,0.547631561756134,0.9384444355964661,9.999999747378752e-05
0.0005360727664083242,1.0,0.5380467176437378,0.9364444613456726,9.999999747378752e-05
0.0004832568811252713,1.0,0.5376728177070618,0.9366666674613953,9.999999747378752e-05
0.0003753980272449553,1.0,0.5334125757217407,0.9357777833938599,9.999999747378752e-05
0.00031738431425765157,1.0,0.5332521200180054,0.9359999895095825,9.999999747378752e-05
0.00023683709150645882,1.0,0.5344741344451904,0.9362221956253052,9.999999747378752e-05
0.00032162643037736416,1.0,0.5341042876243591,0.9359999895095825,9.999999747378752e-05
0.00042760101496241987,1.0,0.5340512990951538,0.9359999895095825,9.999999747378752e-05
0.00033888444886542857,1.0,0.5313361287117004,0.9355555772781372,9.999999747378752e-05
0.0002839279477484524,1.0,0.5316304564476013,0.9366666674613953,9.999999747378752e-05
0.000242788388277404,1.0,0.5341091156005859,0.9364444613456726,9.999999747378752e-05
0.0004138967487961054,1.0,0.5385157465934753,0.9368888735771179,9.999999747378752e-05
0.0005396819324232638,1.0,0.5618037581443787,0.937333345413208,9.999999747378752e-05
0.00034052631235681474,1.0,0.541219174861908,0.9382222294807434,9.999999747378752e-05
0.0002587627968750894,1.0,0.5349027514457703,0.9371111392974854,9.999999747378752e-05
0.00040644482942298055,1.0,0.5298349857330322,0.9364444613456726,9.999999747378752e-05
0.00032805942464619875,1.0,0.5266004204750061,0.9366666674613953,9.999999747378752e-05
0.00021135390852577984,1.0,0.5272399187088013,0.9366666674613953,9.999999747378752e-05
0.0003609798732213676,1.0,0.5262147784233093,0.9368888735771179,9.999999747378752e-05
0.0002634931297507137,1.0,0.5262613892555237,0.9362221956253052,9.999999747378752e-05
0.00037561997305601835,1.0,0.5273941159248352,0.9364444613456726,9.999999747378752e-05
0.0002643214538693428,1.0,0.530687689781189,0.9375555515289307,9.999999747378752e-05
0.0002352272131247446,1.0,0.5328409671783447,0.9364444613456726,9.999999747378752e-05
0.00024240872880909592,1.0,0.5330033898353577,0.9375555515289307,9.999999747378752e-05
0.00020933548512402922,1.0,0.5339329838752747,0.937333345413208,9.999999747378752e-05
0.0002341802610317245,1.0,0.5343250036239624,0.937333345413208,9.999999747378752e-05
0.00022003638150636107,1.0,0.5321056246757507,0.9371111392974854,9.999999747378752e-05
0.00014696252765133977,1.0,0.534626305103302,0.9377777576446533,9.999999747378752e-05
0.00026407939731143415,1.0,0.5356807708740234,0.9380000233650208,9.999999747378752e-05
0.00021833200298715383,1.0,0.534079372882843,0.9371111392974854,9.999999747378752e-05
0.00022759921557735652,1.0,0.5355452299118042,0.9375555515289307,9.999999747378752e-05
0.00029931063181720674,1.0,0.5378465056419373,0.937333345413208,9.999999747378752e-05
0.00016639771638438106,1.0,0.5402551293373108,0.9377777576446533,9.999999747378752e-05
0.00021590791584458202,1.0,0.5365200042724609,0.9366666674613953,9.999999747378752e-05
0.00015146036457736045,1.0,0.5388624668121338,0.937333345413208,9.999999747378752e-05
0.0008982190047390759,1.0,0.5561550855636597,0.9380000233650208,9.999999747378752e-05
0.0002677268930710852,1.0,0.5529842376708984,0.9375555515289307,9.999999747378752e-05
0.00028480368200689554,1.0,0.541002631187439,0.9375555515289307,9.999999747378752e-05
0.00028190226294100285,1.0,0.5335055589675903,0.9371111392974854,9.999999747378752e-05
0.0002831406018231064,1.0,0.5320746898651123,0.9371111392974854,9.999999747378752e-05
0.00031222551479004323,1.0,0.5189574360847473,0.9346666932106018,9.999999747378752e-05
0.00021648987603839487,1.0,0.5231398940086365,0.9351111054420471,9.999999747378752e-05
0.0003858650161419064,1.0,0.5339584946632385,0.9384444355964661,9.999999747378752e-05
0.00019648284069262445,1.0,0.5350134968757629,0.9391111135482788,9.999999747378752e-05
0.00017638049030210823,1.0,0.5348381400108337,0.9388889074325562,9.999999747378752e-05
0.00024566793581470847,1.0,0.5356047749519348,0.9388889074325562,9.999999747378752e-05
0.00022438309679273516,1.0,0.5347645282745361,0.9388889074325562,9.999999747378752e-05
0.0001552713947603479,1.0,0.5353631973266602,0.9388889074325562,9.999999747378752e-05
0.0002475893998052925,1.0,0.5359814763069153,0.9386666417121887,9.999999747378752e-05
0.00012747383152600378,1.0,0.5339932441711426,0.9384444355964661,9.999999747378752e-05
0.00012502337631303817,1.0,0.5363489389419556,0.9384444355964661,9.999999747378752e-05
0.00013687476166523993,1.0,0.5382981300354004,0.9388889074325562,9.999999747378752e-05
0.00011372361768735573,1.0,0.5406527519226074,0.9395555257797241,9.999999747378752e-05
0.00015006406465545297,1.0,0.5415043830871582,0.9395555257797241,9.999999747378752e-05
0.00012134129065088928,1.0,0.5439649820327759,0.9388889074325562,9.999999747378752e-05
0.000490739184897393,1.0,0.5411815047264099,0.9391111135482788,9.999999747378752e-05
0.0003245598927605897,1.0,0.522903323173523,0.9402222037315369,9.999999747378752e-05
0.00018705108959693462,1.0,0.5256991386413574,0.940666675567627,9.999999747378752e-05
0.00019000767497345805,1.0,0.5290281772613525,0.940666675567627,9.999999747378752e-05
0.0002047963353106752,1.0,0.5361545085906982,0.9413333535194397,9.999999747378752e-05
0.0001716307015158236,1.0,0.5405621528625488,0.9408888816833496,9.999999747378752e-05
0.00028294738149270415,1.0,0.539535641670227,0.9408888816833496,9.999999747378752e-05
0.00016852297994773835,1.0,0.5461039543151855,0.9422222375869751,9.999999747378752e-05
0.00019542578957043588,1.0,0.5428022742271423,0.9411110877990723,9.999999747378752e-05
0.0001733231038087979,1.0,0.5463166236877441,0.9419999718666077,9.999999747378752e-05
0.00018324893608223647,1.0,0.545316219329834,0.9413333535194397,9.999999747378752e-05
0.00014480871323030442,1.0,0.541172444820404,0.9382222294807434,9.999999747378752e-05
0.00014612430823035538,1.0,0.5446635484695435,0.9380000233650208,9.999999747378752e-05
0.0001243169535882771,1.0,0.5471180081367493,0.9391111135482788,9.999999747378752e-05
0.00010388821101514623,1.0,0.5482314229011536,0.9393333196640015,9.999999747378752e-05
0.00015011859068181366,1.0,0.547165036201477,0.9393333196640015,9.999999747378752e-05
0.0003002216399181634,1.0,0.546444833278656,0.9391111135482788,9.999999747378752e-05
0.00019952213915530592,1.0,0.5422487258911133,0.9382222294807434,9.999999747378752e-05
0.0001247680193046108,1.0,0.5455791354179382,0.9388889074325562,9.999999747378752e-05
0.00013703109289053828,1.0,0.5468406677246094,0.9386666417121887,9.999999747378752e-05
0.00011014789197361097,1.0,0.5492860674858093,0.9393333196640015,9.999999747378752e-05
0.00019494269508868456,1.0,0.547026515007019,0.9386666417121887,9.999999747378752e-05
0.0001472906587878242,1.0,0.5247663855552673,0.9355555772781372,9.999999747378752e-05
0.000196179942577146,1.0,0.5382529497146606,0.9375555515289307,9.999999747378752e-05
0.00012583305942825973,1.0,0.5488529801368713,0.9386666417121887,9.999999747378752e-05
0.00011346471001161262,1.0,0.5510017275810242,0.9393333196640015,9.999999747378752e-05
0.00013689725892618299,1.0,0.5545492768287659,0.9397777915000916,9.999999747378752e-05
0.0002554009552113712,1.0,0.5517709851264954,0.9393333196640015,9.999999747378752e-05
0.00016620635869912803,1.0,0.5573211908340454,0.9393333196640015,9.999999747378752e-05
0.00019162328680977225,1.0,0.5748324394226074,0.9399999976158142,9.999999747378752e-05
0.00013685296289622784,1.0,0.5671012997627258,0.9395555257797241,9.999999747378752e-05
0.00010180164099438116,1.0,0.5639832019805908,0.9395555257797241,9.999999747378752e-05
0.0002514566294848919,1.0,0.5535584092140198,0.9377777576446533,9.999999747378752e-05
0.0001613183703739196,1.0,0.5425397753715515,0.9353333115577698,9.999999747378752e-05
0.00017966810264624655,1.0,0.5563781261444092,0.9380000233650208,9.999999747378752e-05
0.0002591279917396605,1.0,0.5455947518348694,0.9377777576446533,9.999999747378752e-05
0.00020937438239343464,1.0,0.5433183312416077,0.9375555515289307,9.999999747378752e-05
0.00013851937546860427,1.0,0.5491152405738831,0.9380000233650208,9.999999747378752e-05
0.0002482706622686237,1.0,0.5524506568908691,0.9377777576446533,9.999999747378752e-05
0.00026325805811211467,1.0,0.5460779070854187,0.9380000233650208,9.999999747378752e-05
0.0001251136272912845,1.0,0.5388038158416748,0.9388889074325562,9.999999747378752e-05
0.00023880305525381118,1.0,0.5531476736068726,0.9388889074325562,9.999999747378752e-05
0.00012464419705793262,1.0,0.557906985282898,0.9386666417121887,9.999999747378752e-05
0.00013891072012484074,1.0,0.5595620274543762,0.9388889074325562,9.999999747378752e-05
0.0001967322314158082,1.0,0.559075117111206,0.9388889074325562,9.999999747378752e-05
0.0001485434186179191,1.0,0.5530014038085938,0.9391111135482788,9.999999747378752e-05
0.00014927214942872524,1.0,0.5460324287414551,0.9388889074325562,9.999999747378752e-05
0.00010164795821765438,1.0,0.5468907356262207,0.9386666417121887,9.999999747378752e-05
0.00015771576727274805,1.0,0.5542458295822144,0.9386666417121887,9.999999747378752e-05
0.0001778661971911788,1.0,0.5548610091209412,0.9395555257797241,9.999999747378752e-05
0.00011060597171308473,1.0,0.5517593026161194,0.9395555257797241,9.999999747378752e-05
0.00011856617493322119,1.0,0.5561320781707764,0.9397777915000916,9.999999747378752e-05
0.00013745520845986903,1.0,0.5553138256072998,0.9395555257797241,9.999999747378752e-05
7.655123772565275e-05,1.0,0.5571443438529968,0.9397777915000916,9.999999747378752e-05
0.00011640148295555264,1.0,0.5594398379325867,0.9393333196640015,9.999999747378752e-05
0.00012667679402511567,1.0,0.5615668296813965,0.9402222037315369,9.999999747378752e-05
0.000960452773142606,1.0,0.5418800711631775,0.9346666932106018,9.999999747378752e-05
0.0005079176626168191,1.0,0.5440683960914612,0.9251111149787903,9.999999747378752e-05
0.011994332075119019,0.9959999918937683,0.5361657738685608,0.9344444274902344,9.999999747378752e-05
0.007004740182310343,1.0,0.4846312999725342,0.9273333549499512,9.999999747378752e-05
0.001207444234751165,1.0,0.4845193028450012,0.9331111311912537,9.999999747378752e-05
0.0007867699605412781,1.0,0.4820118248462677,0.9322222471237183,9.999999747378752e-05
0.0009710595477372408,1.0,0.48378634452819824,0.9306666851043701,9.999999747378752e-05
0.0008321005734615028,1.0,0.48622238636016846,0.9342222213745117,9.999999747378752e-05
0.0005469227326102555,1.0,0.48004019260406494,0.9362221956253052,9.999999747378752e-05
0.00042579692672006786,1.0,0.4865177273750305,0.9368888735771179,9.999999747378752e-05
0.00031226311693899333,1.0,0.49118906259536743,0.9384444355964661,9.999999747378752e-05
0.0003417911066208035,1.0,0.49716606736183167,0.9391111135482788,9.999999747378752e-05
0.000592504336964339,1.0,0.5044742822647095,0.9397777915000916,9.999999747378752e-05
0.0006895666592754424,1.0,0.5005003809928894,0.9384444355964661,9.999999747378752e-05
0.00036582699976861477,1.0,0.5025012493133545,0.9384444355964661,9.999999747378752e-05
0.00026520839310251176,1.0,0.5065721273422241,0.9393333196640015,9.999999747378752e-05
0.00021682915394194424,1.0,0.5082488059997559,0.9397777915000916,9.999999747378752e-05
0.00024239069898612797,1.0,0.5103172659873962,0.9397777915000916,9.999999747378752e-05
0.0004721115983556956,1.0,0.5157413482666016,0.9404444694519043,9.999999747378752e-05
0.00023776153102517128,1.0,0.5165254473686218,0.9404444694519043,9.999999747378752e-05
0.0002983936865348369,1.0,0.5165835618972778,0.9402222037315369,9.999999747378752e-05
0.00039673552964814007,1.0,0.5123776793479919,0.9393333196640015,9.999999747378752e-05
0.0002470662584528327,1.0,0.5144163966178894,0.9393333196640015,9.999999747378752e-05
0.00020116001542191952,1.0,0.5141947865486145,0.9393333196640015,9.999999747378752e-05
0.002308109076693654,0.9980000257492065,0.5043577551841736,0.9371111392974854,9.999999747378752e-05
0.0011138318805024028,1.0,0.6201465129852295,0.8837777972221375,9.999999747378752e-05
0.002180312527343631,1.0,0.5042980909347534,0.9226666688919067,9.999999747378752e-05
0.0009610248380340636,1.0,0.4950176179409027,0.9355555772781372,9.999999747378752e-05
0.0006385438027791679,1.0,0.5006070137023926,0.9388889074325562,9.999999747378752e-05
0.0003992886340711266,1.0,0.5058881044387817,0.9399999976158142,9.999999747378752e-05
0.00045747976400889456,1.0,0.5107805728912354,0.9404444694519043,9.999999747378752e-05
0.0006060104351490736,1.0,0.5246278643608093,0.9408888816833496,9.999999747378752e-05
0.0006504857446998358,1.0,0.5269219279289246,0.9411110877990723,9.999999747378752e-05
0.0005953049985691905,1.0,0.5401382446289062,0.9408888816833496,9.999999747378752e-05
0.00032161062699742615,1.0,0.5381537675857544,0.940666675567627,9.999999747378752e-05
0.00043613091111183167,1.0,0.5367828011512756,0.9404444694519043,9.999999747378752e-05
0.00022390505182556808,1.0,0.5346923470497131,0.9404444694519043,9.999999747378752e-05
0.0006126606604084373,1.0,0.5357717275619507,0.9402222037315369,9.999999747378752e-05
0.00036871767952106893,1.0,0.5544838309288025,0.9404444694519043,9.999999747378752e-05
0.0007247356115840375,1.0,0.5523719787597656,0.9393333196640015,9.999999747378752e-05
0.0006699410150758922,1.0,0.5517541170120239,0.9395555257797241,9.999999747378752e-05
0.0003435421676840633,1.0,0.5448092818260193,0.9371111392974854,9.999999747378752e-05
0.00022455929138232023,1.0,0.5458115935325623,0.937333345413208,9.999999747378752e-05
0.00021232814469840378,1.0,0.5478792190551758,0.9375555515289307,9.999999747378752e-05
0.0001526856212876737,1.0,0.5483685731887817,0.9377777576446533,9.999999747378752e-05
0.0001880539202829823,1.0,0.5487729907035828,0.9377777576446533,9.999999747378752e-05
0.00024668261175975204,1.0,0.5491559505462646,0.9380000233650208,9.999999747378752e-05
0.00023732971749268472,1.0,0.5452060103416443,0.9380000233650208,9.999999747378752e-05
0.00036303489468991756,1.0,0.5438753962516785,0.9377777576446533,9.999999747378752e-05
0.0009519312880001962,1.0,0.5425806641578674,0.9366666674613953,9.999999747378752e-05
0.0015792063204571605,1.0,0.5320689678192139,0.9317777752876282,9.999999747378752e-05
0.0005821206723339856,1.0,0.5398103594779968,0.9371111392974854,9.999999747378752e-05
0.0005071289488114417,1.0,0.5473971366882324,0.937333345413208,9.999999747378752e-05
0.00023600523127242923,1.0,0.5715339779853821,0.9415555596351624,9.999999747378752e-05
0.0002183196193072945,1.0,0.5644354224205017,0.941777765750885,9.999999747378752e-05
0.00019515362509991974,1.0,0.5624980926513672,0.9413333535194397,9.999999747378752e-05
0.00016942746879067272,1.0,0.5619366765022278,0.9413333535194397,9.999999747378752e-05
0.00015174460713751614,1.0,0.5587469339370728,0.9408888816833496,9.999999747378752e-05
0.00014700159954372793,1.0,0.5574436783790588,0.9402222037315369,9.999999747378752e-05
0.00016649573808535933,1.0,0.5566839575767517,0.9393333196640015,9.999999747378752e-05
0.00024004971783142537,1.0,0.5538986921310425,0.9393333196640015,9.999999747378752e-05
0.0001752461539581418,1.0,0.5556543469429016,0.9395555257797241,9.999999747378752e-05
0.00020781414059456438,1.0,0.5589170455932617,0.9395555257797241,9.999999747378752e-05
0.00018559816817287356,1.0,0.5614113211631775,0.9404444694519043,9.999999747378752e-05
0.00013512984151020646,1.0,0.5616232752799988,0.940666675567627,9.999999747378752e-05
0.0003373485233169049,1.0,0.557803213596344,0.9391111135482788,9.999999747378752e-05
0.00013517845945898443,1.0,0.5593847632408142,0.9393333196640015,9.999999747378752e-05
0.00017185058095492423,1.0,0.560555636882782,0.9395555257797241,9.999999747378752e-05
0.0007725850446149707,1.0,0.5545167922973633,0.9391111135482788,9.999999747378752e-05
0.00038343522464856505,1.0,0.5484763979911804,0.9271110892295837,9.999999747378752e-05
0.0005881043034605682,1.0,0.5457285046577454,0.9359999895095825,9.999999747378752e-05
0.00037469048402272165,1.0,0.5525283217430115,0.9384444355964661,9.999999747378752e-05
0.0002043552085524425,1.0,0.5558853149414062,0.9393333196640015,9.999999747378752e-05
0.00024778026272542775,1.0,0.5594525337219238,0.9397777915000916,9.999999747378752e-05
0.000220917456317693,1.0,0.5606222748756409,0.9397777915000916,9.999999747378752e-05
0.00016861209587659687,1.0,0.5613289475440979,0.9397777915000916,9.999999747378752e-05
0.00013306332402862608,1.0,0.5629044771194458,0.9397777915000916,9.999999747378752e-05
0.00021215785818640143,1.0,0.5647109150886536,0.9399999976158142,9.999999747378752e-05
0.00023218645947054029,1.0,0.5660989284515381,0.9397777915000916,9.999999747378752e-05
0.000178690577740781,1.0,0.5672730803489685,0.9397777915000916,9.999999747378752e-05
0.0001448734983569011,1.0,0.5685085654258728,0.9395555257797241,9.999999747378752e-05
0.00014022958930581808,1.0,0.56755131483078,0.9393333196640015,9.999999747378752e-05
0.00012287902063690126,1.0,0.5666831135749817,0.9391111135482788,9.999999747378752e-05
0.00013099498755764216,1.0,0.5677505135536194,0.9393333196640015,9.999999747378752e-05
0.0001704681635601446,1.0,0.5687595009803772,0.9397777915000916,9.999999747378752e-05
0.00017274258425459266,1.0,0.5685715079307556,0.9395555257797241,9.999999747378752e-05
0.00022796515258960426,1.0,0.5703781843185425,0.9399999976158142,9.999999747378752e-05
0.0001325748598901555,1.0,0.5711854100227356,0.9402222037315369,9.999999747378752e-05
0.00011134121450595558,1.0,0.5700995922088623,0.9399999976158142,9.999999747378752e-05
9.392759238835424e-05,1.0,0.5695866346359253,0.9397777915000916,9.999999747378752e-05
0.00010700554412323982,1.0,0.570103108882904,0.9397777915000916,9.999999747378752e-05
0.0001470675051677972,1.0,0.568804919719696,0.9393333196640015,9.999999747378752e-05
0.00012182582577224821,1.0,0.568645715713501,0.9391111135482788,9.999999747378752e-05
9.335498907603323e-05,1.0,0.5673060417175293,0.9388889074325562,9.999999747378752e-05
9.545113425701857e-05,1.0,0.5675163269042969,0.9386666417121887,9.999999747378752e-05
0.0001429389085387811,1.0,0.5662010908126831,0.9384444355964661,9.999999747378752e-05
0.00016449581016786397,1.0,0.565526008605957,0.9386666417121887,9.999999747378752e-05
0.00010368097719037905,1.0,0.5678945779800415,0.9388889074325562,9.999999747378752e-05
0.00011306944361422211,1.0,0.5667881369590759,0.9388889074325562,9.999999747378752e-05
0.000124201993457973,1.0,0.5678393840789795,0.9388889074325562,9.999999747378752e-05
9.064481128007174e-05,1.0,0.5698025226593018,0.9393333196640015,9.999999747378752e-05
0.00010301158908987418,1.0,0.5682620406150818,0.9399999976158142,9.999999747378752e-05
0.00025411677779629827,1.0,0.5663934350013733,0.9395555257797241,9.999999747378752e-05
0.00010301212751073763,1.0,0.568030059337616,0.9408888816833496,9.999999747378752e-05
8.41103246784769e-05,1.0,0.5693066120147705,0.940666675567627,9.999999747378752e-05
0.00018097195425070822,1.0,0.5682551264762878,0.9395555257797241,9.999999747378752e-05
0.00011172758240718395,1.0,0.5684733390808105,0.9395555257797241,9.999999747378752e-05
0.00010947047121590003,1.0,0.5671361088752747,0.9388889074325562,9.999999747378752e-05
0.00011292034469079226,1.0,0.5687118172645569,0.9393333196640015,9.999999747378752e-05
0.0002392136084381491,1.0,0.5678830742835999,0.9388889074325562,9.999999747378752e-05
8.347658149432391e-05,1.0,0.5703701376914978,0.9380000233650208,9.999999747378752e-05
0.00013915231102146208,1.0,0.5738751292228699,0.9402222037315369,9.999999747378752e-05
0.00020217204291839153,1.0,0.5700768232345581,0.9391111135482788,9.999999747378752e-05
0.00011692518455674872,1.0,0.555485188961029,0.9362221956253052,9.999999747378752e-05
0.00013514200691133738,1.0,0.5599325299263,0.9380000233650208,9.999999747378752e-05
0.00010649453906808048,1.0,0.5643278360366821,0.9384444355964661,9.999999747378752e-05
0.00014508645108435303,1.0,0.5679855942726135,0.9384444355964661,9.999999747378752e-05
8.64258108776994e-05,1.0,0.5705939531326294,0.9393333196640015,9.999999747378752e-05
0.0003824562591034919,1.0,0.5738123655319214,0.9404444694519043,9.999999747378752e-05
0.00010142555402126163,1.0,0.5754401683807373,0.9413333535194397,9.999999747378752e-05
0.00015665874525438994,1.0,0.5750288367271423,0.9413333535194397,9.999999747378752e-05
0.00010340227163396776,1.0,0.5728722810745239,0.9399999976158142,9.999999747378752e-05
6.97700452292338e-05,1.0,0.5724588632583618,0.9399999976158142,9.999999747378752e-05
0.00018149957759305835,1.0,0.5718948841094971,0.940666675567627,9.999999747378752e-05
0.00010404681961517781,1.0,0.57419353723526,0.9411110877990723,9.999999747378752e-05
0.00010817534348461777,1.0,0.5712375640869141,0.9408888816833496,9.999999747378752e-05
8.68828792590648e-05,1.0,0.5746331810951233,0.9408888816833496,9.999999747378752e-05
9.71851623035036e-05,1.0,0.5719724893569946,0.940666675567627,9.999999747378752e-05
9.932961984304711e-05,1.0,0.5697954297065735,0.9397777915000916,9.999999747378752e-05
6.672348536085337e-05,1.0,0.5604181885719299,0.9395555257797241,9.999999747378752e-05
0.00010230483167106286,1.0,0.5622444748878479,0.9391111135482788,9.999999747378752e-05
9.413674706593156e-05,1.0,0.5647079348564148,0.9395555257797241,9.999999747378752e-05
0.00011468522279756144,1.0,0.5659411549568176,0.9395555257797241,9.999999747378752e-05
0.00024959578877314925,1.0,0.5586940050125122,0.9380000233650208,9.999999747378752e-05
0.00046053199912421405,1.0,0.5401893258094788,0.9319999814033508,9.999999747378752e-05
0.0001086130432668142,1.0,0.5550184845924377,0.9375555515289307,9.999999747378752e-05
0.00013074863818474114,1.0,0.560671329498291,0.9399999976158142,9.999999747378752e-05
0.0001360954047413543,1.0,0.5653181672096252,0.940666675567627,9.999999747378752e-05
9.262020466849208e-05,1.0,0.570244312286377,0.9408888816833496,9.999999747378752e-05
6.615489110117778e-05,1.0,0.5718944668769836,0.9408888816833496,9.999999747378752e-05
0.00011758678738260642,1.0,0.5723037719726562,0.940666675567627,9.999999747378752e-05
0.00011407824058551341,1.0,0.5724019408226013,0.9404444694519043,9.999999747378752e-05
7.426534284604713e-05,1.0,0.5720261335372925,0.9404444694519043,9.999999747378752e-05
6.589520489796996e-05,1.0,0.5737102627754211,0.940666675567627,9.999999747378752e-05
8.383078238693997e-05,1.0,0.574030339717865,0.9404444694519043,9.999999747378752e-05
7.642327545909211e-05,1.0,0.5767093896865845,0.9408888816833496,9.999999747378752e-05
0.00012135783617850393,1.0,0.5747899413108826,0.9404444694519043,9.999999747378752e-05
8.748083200771362e-05,1.0,0.5731378197669983,0.940666675567627,9.999999747378752e-05
5.4707968956790864e-05,1.0,0.5732136964797974,0.940666675567627,9.999999747378752e-05
7.001875928835943e-05,1.0,0.5737760663032532,0.940666675567627,9.999999747378752e-05
7.986273703863844e-05,1.0,0.573563277721405,0.940666675567627,9.999999747378752e-05
6.105694774305448e-05,1.0,0.5760199427604675,0.940666675567627,9.999999747378752e-05
0.00011287729284958914,1.0,0.5782225131988525,0.9408888816833496,9.999999747378752e-05
8.562795846955851e-05,1.0,0.5755714178085327,0.940666675567627,9.999999747378752e-05
0.00014106677554082125,1.0,0.5751098394393921,0.9402222037315369,9.999999747378752e-05
6.601588393095881e-05,1.0,0.5725073218345642,0.9399999976158142,9.999999747378752e-05
9.435857646167278e-05,1.0,0.577354371547699,0.9404444694519043,9.999999747378752e-05
0.00014435623597819358,1.0,0.5829590559005737,0.9408888816833496,9.999999747378752e-05
0.00011777003237511963,1.0,0.609871506690979,0.9399999976158142,9.999999747378752e-05
0.0001137892686529085,1.0,0.5944896340370178,0.9397777915000916,9.999999747378752e-05
0.00012983933265786618,1.0,0.5827818512916565,0.9388889074325562,9.999999747378752e-05
0.00013743428280577064,1.0,0.5764972567558289,0.9384444355964661,9.999999747378752e-05
0.00023531772603746504,1.0,0.5739815831184387,0.9388889074325562,9.999999747378752e-05
7.016002928139642e-05,1.0,0.5721887350082397,0.9388889074325562,9.999999747378752e-05
7.565345003968105e-05,1.0,0.57211834192276,0.9391111135482788,9.999999747378752e-05
6.651264993706718e-05,1.0,0.5712482929229736,0.9393333196640015,9.999999747378752e-05
5.607674393104389e-05,1.0,0.5714395642280579,0.9393333196640015,9.999999747378752e-05
0.0003731530741788447,1.0,0.5665623545646667,0.9340000152587891,9.999999747378752e-05
7.955670298542827e-05,1.0,0.570820152759552,0.9366666674613953,9.999999747378752e-05
9.409120684722438e-05,1.0,0.5772367119789124,0.9384444355964661,9.999999747378752e-05
6.190850399434566e-05,1.0,0.579770565032959,0.9391111135482788,9.999999747378752e-05
6.411090726032853e-05,1.0,0.5809445381164551,0.9395555257797241,9.999999747378752e-05
7.922569784568623e-05,1.0,0.5850485563278198,0.9395555257797241,9.999999747378752e-05
7.299231947399676e-05,1.0,0.5852960348129272,0.9402222037315369,9.999999747378752e-05
9.192569268634543e-05,1.0,0.5830876231193542,0.9397777915000916,9.999999747378752e-05
0.00010336511331843212,1.0,0.5816872715950012,0.9395555257797241,9.999999747378752e-05
0.00012781711120624095,1.0,0.5802912712097168,0.9393333196640015,9.999999747378752e-05
9.576261800248176e-05,1.0,0.5847925543785095,0.9391111135482788,9.999999747378752e-05
6.736446084687486e-05,1.0,0.5833309888839722,0.9388889074325562,9.999999747378752e-05
5.690928446711041e-05,1.0,0.5826091766357422,0.9386666417121887,9.999999747378752e-05
4.91011596750468e-05,1.0,0.5833020210266113,0.9391111135482788,9.999999747378752e-05
7.303463644348085e-05,1.0,0.5826016068458557,0.9393333196640015,9.999999747378752e-05
0.00020377528562676162,1.0,0.5740359425544739,0.9388889074325562,9.999999747378752e-05
0.00018504884792491794,1.0,0.5647709369659424,0.9355555772781372,9.999999747378752e-05
0.0002795578620862216,1.0,0.5651723742485046,0.9377777576446533,9.999999747378752e-05
0.00010980788647430018,1.0,0.6144501566886902,0.940666675567627,9.999999747378752e-05
0.00011475948122097179,1.0,0.6000352501869202,0.9402222037315369,9.999999747378752e-05
0.00011312801507301629,1.0,0.5971853733062744,0.9399999976158142,9.999999747378752e-05
7.27293299860321e-05,1.0,0.5898347496986389,0.9393333196640015,9.999999747378752e-05
6.834076339146122e-05,1.0,0.5871480107307434,0.9395555257797241,9.999999747378752e-05
9.772842895472422e-05,1.0,0.5810667872428894,0.9382222294807434,9.999999747378752e-05
5.840390076627955e-05,1.0,0.5833354592323303,0.9391111135482788,9.999999747378752e-05
7.064601959427819e-05,1.0,0.5821056365966797,0.9384444355964661,9.999999747378752e-05
9.508634684607387e-05,1.0,0.5781742334365845,0.9393333196640015,9.999999747378752e-05
8.051240729400888e-05,1.0,0.581424355506897,0.9391111135482788,9.999999747378752e-05
9.480023436481133e-05,1.0,0.5791391134262085,0.9393333196640015,9.999999747378752e-05
6.716844654874876e-05,1.0,0.5786206126213074,0.9399999976158142,9.999999747378752e-05
0.00015218323096632957,1.0,0.575526773929596,0.9397777915000916,9.999999747378752e-05
0.00014210017980076373,1.0,0.5615679621696472,0.9375555515289307,9.999999747378752e-05
9.190647688228637e-05,1.0,0.5734028220176697,0.9395555257797241,9.999999747378752e-05
6.81223173160106e-05,1.0,0.5769762992858887,0.940666675567627,9.999999747378752e-05
8.51421500556171e-05,1.0,0.5730988383293152,0.9404444694519043,9.999999747378752e-05
7.96943495515734e-05,1.0,0.573178768157959,0.9404444694519043,9.999999747378752e-05
5.384577525546774e-05,1.0,0.578326404094696,0.9408888816833496,9.999999747378752e-05
9.186004899675027e-05,1.0,0.5784317851066589,0.9397777915000916,9.999999747378752e-05
5.123418668517843e-05,1.0,0.5767320394515991,0.9402222037315369,9.999999747378752e-05
0.00020008081628475338,1.0,0.5758996605873108,0.9399999976158142,9.999999747378752e-05
0.00025640983949415386,1.0,0.5605493783950806,0.9362221956253052,9.999999747378752e-05
0.00020560382108669728,1.0,0.5887845754623413,0.9422222375869751,9.999999747378752e-05
0.00010889125405810773,1.0,0.5653471350669861,0.9388889074325562,9.999999747378752e-05
0.00010294264211552218,1.0,0.5746423006057739,0.9402222037315369,9.999999747378752e-05
9.08748697838746e-05,1.0,0.587284505367279,0.941777765750885,9.999999747378752e-05
8.65477486513555e-05,1.0,0.5870491862297058,0.941777765750885,9.999999747378752e-05
6.379799742717296e-05,1.0,0.5843496322631836,0.9415555596351624,9.999999747378752e-05
7.942198135424405e-05,1.0,0.5871671438217163,0.9415555596351624,9.999999747378752e-05
0.00011969089246122167,1.0,0.592128336429596,0.9415555596351624,9.999999747378752e-05
0.00018143889610655606,1.0,0.5696711540222168,0.9391111135482788,9.999999747378752e-05
0.00010654950165189803,1.0,0.577004611492157,0.9397777915000916,9.999999747378752e-05
8.961659477790818e-05,1.0,0.5836263298988342,0.9397777915000916,9.999999747378752e-05
0.00010309484787285328,1.0,0.5895583629608154,0.9399999976158142,9.999999747378752e-05
9.940177551470697e-05,1.0,0.5958797335624695,0.9413333535194397,9.999999747378752e-05
8.834822801873088e-05,1.0,0.594338059425354,0.9408888816833496,9.999999747378752e-05
7.136793283279985e-05,1.0,0.5926716327667236,0.9399999976158142,9.999999747378752e-05
4.460908894543536e-05,1.0,0.5907977819442749,0.9397777915000916,9.999999747378752e-05
0.00017327854584436864,1.0,0.5813038349151611,0.9402222037315369,9.999999747378752e-05
0.0001770060189301148,1.0,0.5498809814453125,0.9377777576446533,9.999999747378752e-05
0.00012200277706142515,1.0,0.5876332521438599,0.9424444437026978,9.999999747378752e-05
9.574049181537703e-05,1.0,0.5882092714309692,0.9419999718666077,9.999999747378752e-05
0.00019731039355974644,1.0,0.6010515093803406,0.9440000057220459,9.999999747378752e-05
8.609014184912667e-05,1.0,0.5893660187721252,0.9419999718666077,9.999999747378752e-05
6.691701855743304e-05,1.0,0.5787626504898071,0.9411110877990723,9.999999747378752e-05
0.00011522039130795747,1.0,0.5800337791442871,0.9404444694519043,9.999999747378752e-05
5.329016494215466e-05,1.0,0.5913375020027161,0.941777765750885,9.999999747378752e-05
9.538767335470766e-05,1.0,0.5898997783660889,0.9411110877990723,9.999999747378752e-05
6.468038191087544e-05,1.0,0.5841421484947205,0.9411110877990723,9.999999747378752e-05
6.726381252519786e-05,1.0,0.5887030959129333,0.9408888816833496,9.999999747378752e-05
7.602624100400135e-05,1.0,0.5844390392303467,0.9402222037315369,9.999999747378752e-05
4.6314722567331046e-05,1.0,0.589381754398346,0.9404444694519043,9.999999747378752e-05
4.652727147913538e-05,1.0,0.593312680721283,0.9395555257797241,9.999999747378752e-05
5.1278362661832944e-05,1.0,0.592295229434967,0.9397777915000916,9.999999747378752e-05
4.58967151644174e-05,1.0,0.5966796875,0.9402222037315369,9.999999747378752e-05
8.520491246599704e-05,1.0,0.5923974514007568,0.9395555257797241,9.999999747378752e-05
5.403706381912343e-05,1.0,0.5944603085517883,0.9402222037315369,9.999999747378752e-05
3.4135864552808926e-05,1.0,0.5976746678352356,0.9404444694519043,9.999999747378752e-05
0.00014491168258246034,1.0,0.581206738948822,0.937333345413208,9.999999747378752e-05
4.426379018696025e-05,1.0,0.6036380529403687,0.9413333535194397,9.999999747378752e-05
6.334521458484232e-05,1.0,0.6035439372062683,0.9413333535194397,9.999999747378752e-05
5.27746815350838e-05,1.0,0.5990678071975708,0.9419999718666077,9.999999747378752e-05
6.678708450635895e-05,1.0,0.5941963791847229,0.9413333535194397,9.999999747378752e-05
5.830546433571726e-05,1.0,0.5907638669013977,0.9404444694519043,9.999999747378752e-05
6.384360312949866e-05,1.0,0.5923507213592529,0.940666675567627,9.999999747378752e-05
4.808585435966961e-05,1.0,0.5875999331474304,0.9384444355964661,9.999999747378752e-05
8.108129259198904e-05,1.0,0.5916373133659363,0.9391111135482788,9.999999747378752e-05
5.885396967642009e-05,1.0,0.5949264764785767,0.9397777915000916,9.999999747378752e-05
3.794729491346516e-05,1.0,0.6006240844726562,0.9408888816833496,9.999999747378752e-05
4.037924372823909e-05,1.0,0.6030662655830383,0.9413333535194397,9.999999747378752e-05
4.539992369245738e-05,1.0,0.597761332988739,0.9408888816833496,9.999999747378752e-05
8.509514009347185e-05,1.0,0.5936882495880127,0.9391111135482788,9.999999747378752e-05
0.0009977964218705893,1.0,0.5951575040817261,0.9337777495384216,9.999999747378752e-05
0.006130004767328501,0.9980000257492065,0.5742977857589722,0.9375555515289307,9.999999747378752e-05
0.0010245178127661347,1.0,0.6122511625289917,0.9415555596351624,9.999999747378752e-05
0.00025092920986935496,1.0,0.5849866271018982,0.9415555596351624,9.999999747378752e-05
0.00019920349586755037,1.0,0.596384584903717,0.941777765750885,9.999999747378752e-05
0.00025831867242231965,1.0,0.5978188514709473,0.9415555596351624,9.999999747378752e-05
0.00038418793701566756,1.0,0.6045814752578735,0.9422222375869751,9.999999747378752e-05
0.00011959719267906621,1.0,0.5999643802642822,0.941777765750885,9.999999747378752e-05
8.21200737846084e-05,1.0,0.5935758352279663,0.941777765750885,9.999999747378752e-05
0.00019011883705388755,1.0,0.5911595821380615,0.941777765750885,9.999999747378752e-05
0.00010003289935411885,1.0,0.5891759991645813,0.941777765750885,9.999999747378752e-05
0.00013599706289824098,1.0,0.5872518420219421,0.9415555596351624,9.999999747378752e-05
0.00010244231816614047,1.0,0.5865498185157776,0.9413333535194397,9.999999747378752e-05
9.389008482685313e-05,1.0,0.5877445340156555,0.9415555596351624,9.999999747378752e-05
0.00012467231135815382,1.0,0.5903822779655457,0.9415555596351624,9.999999747378752e-05
0.00013803804176859558,1.0,0.5813234448432922,0.9397777915000916,9.999999747378752e-05
9.967315418180078e-05,1.0,0.5793701410293579,0.9395555257797241,9.999999747378752e-05
0.0009972582338377833,1.0,0.5713983178138733,0.9388889074325562,9.999999747378752e-05
0.00015787515440024436,1.0,0.5646489858627319,0.9217777848243713,9.999999747378752e-05
0.0002415922936052084,1.0,0.5484037399291992,0.9337777495384216,9.999999747378752e-05
0.0002784347452688962,1.0,0.5562464594841003,0.9375555515289307,9.999999747378752e-05
0.00013985228724777699,1.0,0.5630671977996826,0.9404444694519043,9.999999747378752e-05
0.00011258407175773755,1.0,0.5668417811393738,0.9408888816833496,9.999999747378752e-05
0.00015376569353975356,1.0,0.5710176825523376,0.9415555596351624,9.999999747378752e-05
0.00012530366075225174,1.0,0.5754991173744202,0.9411110877990723,9.999999747378752e-05
0.00010788535291794688,1.0,0.5781765580177307,0.9415555596351624,9.999999747378752e-05
0.00014662524336017668,1.0,0.5796335935592651,0.9419999718666077,9.999999747378752e-05
0.00015651398280169815,1.0,0.5790463089942932,0.941777765750885,9.999999747378752e-05
9.056282578967512e-05,1.0,0.5817461609840393,0.9419999718666077,9.999999747378752e-05
7.347153587033972e-05,1.0,0.5825579166412354,0.9424444437026978,9.999999747378752e-05
0.00016912580758798867,1.0,0.5793620944023132,0.9415555596351624,9.999999747378752e-05
8.770690328674391e-05,1.0,0.55403733253479,0.9382222294807434,9.999999747378752e-05
0.00015715819608885795,1.0,0.5598602294921875,0.9393333196640015,9.999999747378752e-05
0.00010988417488988489,1.0,0.5660887956619263,0.9402222037315369,9.999999747378752e-05
9.872778173303232e-05,1.0,0.5705060362815857,0.940666675567627,9.999999747378752e-05
0.00010051587014459074,1.0,0.5730981230735779,0.9408888816833496,9.999999747378752e-05
0.0001529803266748786,1.0,0.5770836472511292,0.941777765750885,9.999999747378752e-05
5.9901496570091695e-05,1.0,0.5863779783248901,0.9422222375869751,9.999999747378752e-05
6.962494808249176e-05,1.0,0.5850690603256226,0.9426666498184204,9.999999747378752e-05
8.125910972012207e-05,1.0,0.5862513184547424,0.9424444437026978,9.999999747378752e-05
0.0001537435600766912,1.0,0.5821090936660767,0.9422222375869751,9.999999747378752e-05
6.187659892020747e-05,1.0,0.582046627998352,0.9419999718666077,9.999999747378752e-05
9.290635352954268e-05,1.0,0.5793493986129761,0.9419999718666077,9.999999747378752e-05
0.00019383315520826727,1.0,0.5810985565185547,0.9419999718666077,9.999999747378752e-05
0.00010409922106191516,1.0,0.5864279270172119,0.9395555257797241,9.999999747378752e-05
0.00015879591228440404,1.0,0.5983049273490906,0.941777765750885,9.999999747378752e-05
7.10076346877031e-05,1.0,0.593858003616333,0.9413333535194397,9.999999747378752e-05
0.00013871572446078062,1.0,0.5910583734512329,0.9408888816833496,9.999999747378752e-05
6.381770799634978e-05,1.0,0.5918338298797607,0.940666675567627,9.999999747378752e-05
7.064338569762185e-05,1.0,0.5915220975875854,0.9399999976158142,9.999999747378752e-05
7.699055277043954e-05,1.0,0.5914626121520996,0.9397777915000916,9.999999747378752e-05
8.063753921305761e-05,1.0,0.5814582109451294,0.9393333196640015,9.999999747378752e-05
7.530765287810937e-05,1.0,0.5618054270744324,0.9382222294807434,9.999999747378752e-05
6.538044544868171e-05,1.0,0.5683241486549377,0.9384444355964661,9.999999747378752e-05
7.128755532903597e-05,1.0,0.5757612586021423,0.9393333196640015,9.999999747378752e-05
8.935897494666278e-05,1.0,0.5805377960205078,0.9404444694519043,9.999999747378752e-05
0.00036972452653571963,1.0,0.5880788564682007,0.9422222375869751,9.999999747378752e-05
0.00019106478430330753,1.0,0.6248858571052551,0.9426666498184204,9.999999747378752e-05
0.0001425774971721694,1.0,0.6093124151229858,0.9413333535194397,9.999999747378752e-05
0.00021265576651785523,1.0,0.5759729146957397,0.9393333196640015,9.999999747378752e-05
0.00012146463996032253,1.0,0.5806664824485779,0.9388889074325562,9.999999747378752e-05
7.766867929603904e-05,1.0,0.5796521902084351,0.9388889074325562,9.999999747378752e-05
0.00012228795094415545,1.0,0.5777467489242554,0.9388889074325562,9.999999747378752e-05
6.11061550443992e-05,1.0,0.5791627764701843,0.9388889074325562,9.999999747378752e-05
6.878677231725305e-05,1.0,0.5795015692710876,0.9386666417121887,9.999999747378752e-05
0.00015515241830144078,1.0,0.5721447467803955,0.9386666417121887,9.999999747378752e-05
5.843241888214834e-05,1.0,0.5712624192237854,0.9384444355964661,9.999999747378752e-05
8.492819324601442e-05,1.0,0.5735181570053101,0.9386666417121887,9.999999747378752e-05
5.442224210128188e-05,1.0,0.575304388999939,0.9388889074325562,9.999999747378752e-05
5.3847685194341466e-05,1.0,0.5800668597221375,0.9388889074325562,9.999999747378752e-05
0.00019900490588042885,1.0,0.5749635696411133,0.9375555515289307,9.999999747378752e-05
6.926042988197878e-05,1.0,0.5752003788948059,0.9375555515289307,9.999999747378752e-05
0.00014039337111171335,1.0,0.5761986374855042,0.9384444355964661,9.999999747378752e-05
9.973151463782415e-05,1.0,0.5805884003639221,0.9395555257797241,9.999999747378752e-05
7.396880391752347e-05,1.0,0.5766453742980957,0.9393333196640015,9.999999747378752e-05
5.94814118812792e-05,1.0,0.5783324837684631,0.9388889074325562,9.999999747378752e-05
3.967920201830566e-05,1.0,0.5797554850578308,0.9395555257797241,9.999999747378752e-05
8.094075747067109e-05,1.0,0.5818955898284912,0.9395555257797241,9.999999747378752e-05
8.063578570727259e-05,1.0,0.5875628590583801,0.9399999976158142,9.999999747378752e-05
0.00010697582183638588,1.0,0.5858359932899475,0.9397777915000916,9.999999747378752e-05
0.0001034555898513645,1.0,0.5812724232673645,0.9395555257797241,9.999999747378752e-05
6.367229798343033e-05,1.0,0.5809265375137329,0.9395555257797241,9.999999747378752e-05
5.530595808522776e-05,1.0,0.5824541449546814,0.9395555257797241,9.999999747378752e-05
5.3964682592777535e-05,1.0,0.5830782651901245,0.9395555257797241,9.999999747378752e-05
7.117545465007424e-05,1.0,0.5847770571708679,0.9399999976158142,9.999999747378752e-05
5.893896741326898e-05,1.0,0.5880252718925476,0.9393333196640015,9.999999747378752e-05
6.411153299268335e-05,1.0,0.5855498313903809,0.9395555257797241,9.999999747378752e-05
0.00013685214798897505,1.0,0.5849605202674866,0.9397777915000916,9.999999747378752e-05
4.192133928881958e-05,1.0,0.5837703347206116,0.9391111135482788,9.999999747378752e-05
5.404428520705551e-05,1.0,0.5866464972496033,0.9393333196640015,9.999999747378752e-05
3.888196806656197e-05,1.0,0.5866943597793579,0.9397777915000916,9.999999747378752e-05
0.0001064719763235189,1.0,0.582481324672699,0.9393333196640015,9.999999747378752e-05
3.973469938500784e-05,1.0,0.5811577439308167,0.9393333196640015,9.999999747378752e-05
4.809234451386146e-05,1.0,0.5853428840637207,0.9402222037315369,9.999999747378752e-05
5.785599569207989e-05,1.0,0.5873631238937378,0.9402222037315369,9.999999747378752e-05
4.8146306653507054e-05,1.0,0.5871544480323792,0.9399999976158142,9.999999747378752e-05
0.00011253322008997202,1.0,0.5948415994644165,0.9411110877990723,9.999999747378752e-05
7.458329491782933e-05,1.0,0.594068169593811,0.9404444694519043,9.999999747378752e-05
5.4702250054106116e-05,1.0,0.5927257537841797,0.9404444694519043,9.999999747378752e-05
4.167299630353227e-05,1.0,0.5931103825569153,0.9402222037315369,9.999999747378752e-05
5.6127391871996224e-05,1.0,0.5913711190223694,0.9399999976158142,9.999999747378752e-05
4.5529432100011036e-05,1.0,0.5908383131027222,0.9402222037315369,9.999999747378752e-05
3.31576811731793e-05,1.0,0.5913096070289612,0.9402222037315369,9.999999747378752e-05
3.072500112466514e-05,1.0,0.5919500589370728,0.9399999976158142,9.999999747378752e-05
0.00025753985391929746,1.0,0.5922714471817017,0.9399999976158142,9.999999747378752e-05
0.0009951633401215076,1.0,0.5637115836143494,0.9435555338859558,9.999999747378752e-05
0.0035029291175305843,0.9980000257492065,0.5392260551452637,0.940666675567627,9.999999747378752e-05
0.000484716787468642,1.0,0.6595175862312317,0.8933333158493042,9.999999747378752e-05
0.00028396875131875277,1.0,0.5541256666183472,0.9328888654708862,9.999999747378752e-05
0.0002722433127928525,1.0,0.5515648722648621,0.9368888735771179,9.999999747378752e-05
0.00038571315235458314,1.0,0.5440614223480225,0.9342222213745117,9.999999747378752e-05
0.0006651299190707505,1.0,0.5539029836654663,0.9388889074325562,9.999999747378752e-05
0.00026290188543498516,1.0,0.6345134377479553,0.9426666498184204,9.999999747378752e-05
0.00019847258226945996,1.0,0.625765860080719,0.9426666498184204,9.999999747378752e-05
0.00038815755397081375,1.0,0.6183704733848572,0.9426666498184204,9.999999747378752e-05
0.00018618357717059553,1.0,0.6330214142799377,0.9424444437026978,9.999999747378752e-05
0.0001239860721398145,1.0,0.613934338092804,0.9428889155387878,9.999999747378752e-05
0.0001450224663130939,1.0,0.5940206050872803,0.9424444437026978,9.999999747378752e-05
0.0002317611506441608,1.0,0.5895677804946899,0.9404444694519043,9.999999747378752e-05
0.00013753074745181948,1.0,0.5816038846969604,0.9408888816833496,9.999999747378752e-05
0.0001177443191409111,1.0,0.5791096687316895,0.9402222037315369,9.999999747378752e-05
9.30028036236763e-05,1.0,0.577275276184082,0.9402222037315369,9.999999747378752e-05
9.654557652538642e-05,1.0,0.575718343257904,0.9402222037315369,9.999999747378752e-05
8.04508090368472e-05,1.0,0.5754149556159973,0.9399999976158142,9.999999747378752e-05
0.00012427491310518235,1.0,0.569912850856781,0.9393333196640015,9.999999747378752e-05
9.777439117897302e-05,1.0,0.5708214640617371,0.9395555257797241,9.999999747378752e-05
8.230566163547337e-05,1.0,0.5736576914787292,0.9397777915000916,9.999999747378752e-05
9.169381519313902e-05,1.0,0.5744083523750305,0.9399999976158142,9.999999747378752e-05
0.00013622111873701215,1.0,0.579836368560791,0.9397777915000916,9.999999747378752e-05
0.00013521904475055635,1.0,0.5816722512245178,0.9402222037315369,9.999999747378752e-05
9.677063644630834e-05,1.0,0.5769290924072266,0.9397777915000916,9.999999747378752e-05
9.591957496013492e-05,1.0,0.5846745371818542,0.940666675567627,9.999999747378752e-05
0.0001578941009938717,1.0,0.584079921245575,0.940666675567627,9.999999747378752e-05
0.00010067501716548577,1.0,0.5862711071968079,0.9404444694519043,9.999999747378752e-05
5.907852028030902e-05,1.0,0.583464503288269,0.9402222037315369,9.999999747378752e-05
7.634727808181196e-05,1.0,0.584101676940918,0.9402222037315369,9.999999747378752e-05
0.00011311275011394173,1.0,0.5861530900001526,0.9404444694519043,9.999999747378752e-05
7.257139077410102e-05,1.0,0.5867433547973633,0.940666675567627,9.999999747378752e-05
7.335845293710008e-05,1.0,0.5871695876121521,0.940666675567627,9.999999747378752e-05
5.8380599512020126e-05,1.0,0.588874876499176,0.940666675567627,9.999999747378752e-05
0.00010291283979313448,1.0,0.5878925323486328,0.940666675567627,9.999999747378752e-05
6.160439806990325e-05,1.0,0.585994303226471,0.940666675567627,9.999999747378752e-05
5.619959483738057e-05,1.0,0.587496817111969,0.940666675567627,9.999999747378752e-05
8.164962491719052e-05,1.0,0.586391031742096,0.9404444694519043,9.999999747378752e-05
0.0001235009403899312,1.0,0.5870725512504578,0.9402222037315369,9.999999747378752e-05
0.00015323753177653998,1.0,0.5978776812553406,0.9411110877990723,9.999999747378752e-05
9.823280561249703e-05,1.0,0.5998923778533936,0.9413333535194397,9.999999747378752e-05
0.00010263889271300286,1.0,0.6211755275726318,0.9399999976158142,9.999999747378752e-05
8.046886796364561e-05,1.0,0.6071579456329346,0.9402222037315369,9.999999747378752e-05
8.213723049266264e-05,1.0,0.6033239960670471,0.9402222037315369,9.999999747378752e-05
8.93449250725098e-05,1.0,0.6000763773918152,0.9402222037315369,9.999999747378752e-05
8.027891453821212e-05,1.0,0.598587155342102,0.9397777915000916,9.999999747378752e-05
7.251001079566777e-05,1.0,0.5936280488967896,0.9402222037315369,9.999999747378752e-05
4.770404120790772e-05,1.0,0.5966703295707703,0.9395555257797241,9.999999747378752e-05
6.349775503622368e-05,1.0,0.5933604836463928,0.9397777915000916,9.999999747378752e-05
4.823532435693778e-05,1.0,0.5933002829551697,0.9397777915000916,9.999999747378752e-05
4.422697384143248e-05,1.0,0.5906705260276794,0.9399999976158142,9.999999747378752e-05
4.100305159226991e-05,1.0,0.5928807258605957,0.9399999976158142,9.999999747378752e-05
7.636141526745632e-05,1.0,0.5939746499061584,0.9397777915000916,9.999999747378752e-05
5.207288995734416e-05,1.0,0.5949886441230774,0.9397777915000916,9.999999747378752e-05
0.00014071720943320543,1.0,0.57378751039505,0.9375555515289307,9.999999747378752e-05
9.379003313370049e-05,1.0,0.5732700824737549,0.937333345413208,9.999999747378752e-05
0.00010622818081174046,1.0,0.5809162855148315,0.9384444355964661,9.999999747378752e-05
7.171818288043141e-05,1.0,0.5872966051101685,0.9395555257797241,9.999999747378752e-05
9.124744246946648e-05,1.0,0.5944294333457947,0.9402222037315369,9.999999747378752e-05
6.031470911693759e-05,1.0,0.5968508720397949,0.9402222037315369,9.999999747378752e-05
4.726217593997717e-05,1.0,0.5977174639701843,0.9404444694519043,9.999999747378752e-05
8.407150744460523e-05,1.0,0.5976117253303528,0.9404444694519043,9.999999747378752e-05
6.105833745095879e-05,1.0,0.5950566530227661,0.9402222037315369,9.999999747378752e-05
5.807211346109398e-05,1.0,0.59859699010849,0.9404444694519043,9.999999747378752e-05
5.741330824093893e-05,1.0,0.600024938583374,0.940666675567627,9.999999747378752e-05
4.60054179711733e-05,1.0,0.5997730493545532,0.9404444694519043,9.999999747378752e-05
2.7335503546055406e-05,1.0,0.5997487306594849,0.9404444694519043,9.999999747378752e-05
4.515006367000751e-05,1.0,0.5985350608825684,0.940666675567627,9.999999747378752e-05
6.880996807012707e-05,1.0,0.6010777950286865,0.9404444694519043,9.999999747378752e-05
0.0008186648483388126,1.0,0.6034237146377563,0.9419999718666077,9.999999747378752e-05
0.000911278766579926,1.0,0.6018338203430176,0.9393333196640015,9.999999747378752e-05
0.00034275473444722593,1.0,0.5989841818809509,0.9408888816833496,9.999999747378752e-05
0.00019542041991371661,1.0,0.5916833281517029,0.9408888816833496,9.999999747378752e-05
0.0001741201849654317,1.0,0.5900680422782898,0.9411110877990723,9.999999747378752e-05
0.00018520711455494165,1.0,0.585500955581665,0.940666675567627,9.999999747378752e-05
0.0001585222635185346,1.0,0.5858532786369324,0.9404444694519043,9.999999747378752e-05
9.098324517253786e-05,1.0,0.5832609534263611,0.940666675567627,9.999999747378752e-05
9.829259943217039e-05,1.0,0.5847134590148926,0.9402222037315369,9.999999747378752e-05
6.946174107724801e-05,1.0,0.5726213455200195,0.940666675567627,9.999999747378752e-05
0.00016722254804335535,1.0,0.5797833204269409,0.9399999976158142,9.999999747378752e-05
6.0986265452811494e-05,1.0,0.58355313539505,0.9399999976158142,9.999999747378752e-05
0.0001484981330577284,1.0,0.5830671191215515,0.9399999976158142,9.999999747378752e-05
8.42653535073623e-05,1.0,0.5827187895774841,0.9399999976158142,9.999999747378752e-05
7.700250716879964e-05,1.0,0.5852571725845337,0.9402222037315369,9.999999747378752e-05
6.321647379081696e-05,1.0,0.5874289870262146,0.9402222037315369,9.999999747378752e-05
7.283076411113143e-05,1.0,0.5881243944168091,0.9402222037315369,9.999999747378752e-05
0.00044594635255634785,1.0,0.5900951027870178,0.9404444694519043,9.999999747378752e-05
0.00040068035013973713,1.0,0.5942528247833252,0.9382222294807434,9.999999747378752e-05
0.0003245484549552202,1.0,0.5893110632896423,0.9395555257797241,9.999999747378752e-05
0.00023087835870683193,1.0,0.5782256722450256,0.9384444355964661,9.999999747378752e-05
0.0001867070241132751,1.0,0.5813722610473633,0.9386666417121887,9.999999747378752e-05
9.5808194600977e-05,1.0,0.5772449374198914,0.9386666417121887,9.999999747378752e-05
0.00014381430810317397,1.0,0.5748632550239563,0.9386666417121887,9.999999747378752e-05
8.886270370567217e-05,1.0,0.5763117671012878,0.9388889074325562,9.999999747378752e-05
