loss,accuracy,val_loss,val_accuracy,lr
0.6007568836212158,0.828000009059906,1.468192219734192,0.46088889241218567,0.0010000000474974513
0.28089213371276855,0.9279999732971191,1.4230583906173706,0.782444417476654,0.0010000000474974513
0.22549065947532654,0.9319999814033508,1.4378297328948975,0.8204444646835327,0.0010000000474974513
0.20337656140327454,0.9380000233650208,1.5132672786712646,0.4735555648803711,0.0010000000474974513
0.18625420331954956,0.9480000138282776,1.557531476020813,0.09022222459316254,0.0010000000474974513
0.16039489209651947,0.9559999704360962,1.6083362102508545,0.031111111864447594,0.0010000000474974513
0.13635534048080444,0.9580000042915344,1.6559251546859741,0.023777777329087257,0.0010000000474974513
0.1251298487186432,0.9639999866485596,1.7172467708587646,0.02133333310484886,0.0010000000474974513
0.11832133680582047,0.9639999866485596,1.641857385635376,0.02311111055314541,0.0010000000474974513
0.10927755385637283,0.9660000205039978,1.7512482404708862,0.04600000008940697,0.0010000000474974513
0.11706285923719406,0.9639999866485596,1.7295725345611572,0.020444445312023163,0.0010000000474974513
0.1104641854763031,0.9679999947547913,1.6520308256149292,0.02199999988079071,0.0010000000474974513
0.10653538256883621,0.9639999866485596,1.7394063472747803,0.02177777700126171,0.0010000000474974513
0.11050181835889816,0.9660000205039978,1.7626850605010986,0.02177777700126171,0.0010000000474974513
0.09795056283473969,0.9700000286102295,1.4977617263793945,0.25955554842948914,0.0010000000474974513
0.1022147610783577,0.9739999771118164,1.8501907587051392,0.020888889208436012,0.0010000000474974513
0.09677232056856155,0.9739999771118164,1.686185598373413,0.02199999988079071,0.0010000000474974513
0.08489104360342026,0.9760000109672546,1.8895494937896729,0.03222222253680229,0.0010000000474974513
0.07375269383192062,0.9760000109672546,1.5748867988586426,0.036666665226221085,0.0010000000474974513
0.0860464945435524,0.9760000109672546,1.7715827226638794,0.041111111640930176,0.0010000000474974513
0.10786010324954987,0.972000002861023,1.6312379837036133,0.2593333423137665,0.0010000000474974513
0.0913974717259407,0.9760000109672546,0.9802025556564331,0.6777777671813965,0.0010000000474974513
0.07939805090427399,0.9739999771118164,1.1282780170440674,0.36133334040641785,0.0010000000474974513
0.06709030270576477,0.9819999933242798,1.3528451919555664,0.1317777782678604,0.0010000000474974513
0.05407848209142685,0.9879999756813049,1.2494792938232422,0.33711111545562744,0.0010000000474974513
0.05457832291722298,0.9860000014305115,0.8963642120361328,0.5573333501815796,0.0010000000474974513
0.07245146483182907,0.9860000014305115,0.5632883310317993,0.9008888602256775,0.0010000000474974513
0.06015987694263458,0.984000027179718,0.7894638180732727,0.7360000014305115,0.0010000000474974513
0.052862443029880524,0.9860000014305115,0.5049574375152588,0.8804444670677185,0.0010000000474974513
0.05076334998011589,0.9879999756813049,0.6485769152641296,0.8173333406448364,0.0010000000474974513
0.054377056658267975,0.984000027179718,0.5696958899497986,0.8444444537162781,0.0010000000474974513
0.08511501550674438,0.9700000286102295,0.38740304112434387,0.9240000247955322,0.0010000000474974513
0.07772323489189148,0.9739999771118164,0.4703165590763092,0.9122222065925598,0.0010000000474974513
0.05576265975832939,0.9860000014305115,0.4180748760700226,0.9202222228050232,0.0010000000474974513
0.048846859484910965,0.9900000095367432,0.3421858251094818,0.9226666688919067,0.0010000000474974513
0.037430789321660995,0.9900000095367432,0.37170305848121643,0.9122222065925598,0.0010000000474974513
0.028120269998908043,0.9919999837875366,0.5150877833366394,0.8584444522857666,0.0010000000474974513
0.04708463326096535,0.9879999756813049,0.4340457022190094,0.8617777824401855,0.0010000000474974513
0.03784315660595894,0.9900000095367432,0.2899261713027954,0.9326666593551636,0.0010000000474974513
0.03769761696457863,0.9879999756813049,0.3020511269569397,0.9068889021873474,0.0010000000474974513
0.03991269692778587,0.9879999756813049,0.32491517066955566,0.9064444303512573,0.0010000000474974513
0.04500764608383179,0.9860000014305115,0.31480851769447327,0.9297778010368347,0.0010000000474974513
0.06007210537791252,0.9900000095367432,0.7983932495117188,0.7964444160461426,0.0010000000474974513
0.07782106846570969,0.9760000109672546,0.5945404767990112,0.898888885974884,0.0010000000474974513
0.06020985171198845,0.984000027179718,0.34425610303878784,0.9359999895095825,0.0010000000474974513
0.04914887249469757,0.9879999756813049,0.40622690320014954,0.9062222242355347,0.0010000000474974513
0.04165119305253029,0.9900000095367432,0.36001574993133545,0.9313333630561829,0.0010000000474974513
0.02776876464486122,0.9940000176429749,0.33764246106147766,0.9211111068725586,0.0010000000474974513
0.032076768577098846,0.9919999837875366,0.3893589973449707,0.9024444222450256,0.0010000000474974513
0.01898104138672352,0.9940000176429749,0.35221579670906067,0.9306666851043701,0.0010000000474974513
0.020016644150018692,0.9940000176429749,0.42706573009490967,0.8853333592414856,0.0010000000474974513
0.014277400448918343,0.9959999918937683,0.3092361390590668,0.9306666851043701,0.0010000000474974513
0.013527981005609035,0.9980000257492065,0.32939252257347107,0.9244444370269775,0.0010000000474974513
0.011422006413340569,0.9980000257492065,0.3427276611328125,0.925777792930603,0.0010000000474974513
0.018178703263401985,0.9980000257492065,0.44011232256889343,0.9386666417121887,0.0010000000474974513
0.06999064236879349,0.9779999852180481,0.6564725041389465,0.8382222056388855,0.0010000000474974513
0.06254426389932632,0.9819999933242798,0.7743182182312012,0.7951111197471619,0.0010000000474974513
0.029097460210323334,0.9900000095367432,0.6483625769615173,0.8162222504615784,0.0010000000474974513
0.027370590716600418,0.9919999837875366,0.7189070582389832,0.7613333463668823,0.0010000000474974513
0.043583549559116364,0.9879999756813049,0.5573064088821411,0.8537777662277222,0.0010000000474974513
0.025753937661647797,0.9940000176429749,0.676321804523468,0.8255555629730225,0.0010000000474974513
0.02523241750895977,0.9940000176429749,0.33991244435310364,0.9213333129882812,0.0010000000474974513
0.029250148683786392,0.9940000176429749,0.3181160092353821,0.9295555353164673,0.0010000000474974513
0.026060400530695915,0.9959999918937683,0.3841254413127899,0.9124444723129272,0.0010000000474974513
0.024797504767775536,0.9919999837875366,0.4964272379875183,0.8768888711929321,0.0010000000474974513
0.018871452659368515,0.9940000176429749,0.3797459900379181,0.9044444561004639,0.0010000000474974513
0.016994064673781395,0.9940000176429749,0.3621337413787842,0.940666675567627,0.0010000000474974513
0.02288614958524704,0.9919999837875366,0.5109773278236389,0.9386666417121887,0.0010000000474974513
0.015227760188281536,0.9980000257492065,0.45942986011505127,0.9386666417121887,0.0010000000474974513
0.017650170251727104,0.9919999837875366,0.4252353608608246,0.9131110906600952,0.0010000000474974513
0.024670369923114777,0.9940000176429749,0.43940046429634094,0.9355555772781372,0.0010000000474974513
0.03229127824306488,0.9900000095367432,0.3842144310474396,0.937333345413208,0.0010000000474974513
0.019270088523626328,0.9940000176429749,0.4627206027507782,0.9326666593551636,0.0010000000474974513
0.01546782348304987,0.9940000176429749,0.522797703742981,0.9380000233650208,0.0010000000474974513
0.036571208387613297,0.9900000095367432,0.663384735584259,0.8526666760444641,0.0010000000474974513
0.02725929021835327,0.9980000257492065,0.6645047664642334,0.9326666593551636,0.0010000000474974513
0.016574185341596603,0.9940000176429749,0.5612234473228455,0.9382222294807434,0.0010000000474974513
0.018264401704072952,0.9940000176429749,0.523531436920166,0.9353333115577698,0.0010000000474974513
0.02234436571598053,0.9900000095367432,0.4549511671066284,0.9284444451332092,0.0010000000474974513
0.019793285056948662,0.9940000176429749,0.4356147050857544,0.9399999976158142,0.0010000000474974513
0.014894713647663593,0.9959999918937683,0.38588419556617737,0.9344444274902344,0.0010000000474974513
0.013409404084086418,0.9980000257492065,0.4040297269821167,0.9371111392974854,0.0010000000474974513
0.01569654978811741,0.9940000176429749,0.4955376088619232,0.9388889074325562,0.0010000000474974513
0.010357475839555264,1.0,0.44891369342803955,0.9340000152587891,0.0010000000474974513
0.005683049093931913,0.9980000257492065,0.41481077671051025,0.9182222485542297,0.0010000000474974513
0.005805293098092079,1.0,0.41747257113456726,0.9273333549499512,0.0010000000474974513
0.01027765218168497,0.9980000257492065,0.38800668716430664,0.9162222146987915,0.0010000000474974513
0.0045917644165456295,1.0,0.3967858552932739,0.9377777576446533,0.0010000000474974513
0.002563266782090068,1.0,0.3820343017578125,0.9364444613456726,0.0010000000474974513
0.0026265510823577642,1.0,0.3801913261413574,0.9377777576446533,0.0010000000474974513
0.0009187789401039481,1.0,0.39260032773017883,0.9419999718666077,0.0010000000474974513
0.001107844989746809,1.0,0.3796171247959137,0.9413333535194397,0.0010000000474974513
0.0007699299021624029,1.0,0.3772122859954834,0.940666675567627,0.0010000000474974513
0.0027759403456002474,1.0,0.39114969968795776,0.9131110906600952,0.0010000000474974513
0.0027661253698170185,1.0,0.3691166937351227,0.9282222390174866,0.0010000000474974513
0.0009146744851022959,1.0,0.37258100509643555,0.9359999895095825,0.0010000000474974513
0.0017888511065393686,1.0,0.3785324692726135,0.9126666784286499,0.0010000000474974513
0.0017536078812554479,1.0,0.3664034903049469,0.9155555367469788,0.0010000000474974513
0.0008586833719164133,1.0,0.34860464930534363,0.9295555353164673,0.0010000000474974513
0.0005071506020613015,1.0,0.3525818884372711,0.9340000152587891,0.0010000000474974513
0.0004755590343847871,1.0,0.35902833938598633,0.9346666932106018,0.0010000000474974513
0.0008076819940470159,1.0,0.36798977851867676,0.9340000152587891,0.0010000000474974513
0.0005354205495677888,1.0,0.3728072941303253,0.9326666593551636,0.0010000000474974513
0.0006331299082376063,1.0,0.3747846484184265,0.9331111311912537,0.0010000000474974513
0.00041194993536919355,1.0,0.37589046359062195,0.9337777495384216,0.0010000000474974513
0.0004521379014477134,1.0,0.379651814699173,0.9340000152587891,0.0010000000474974513
0.0006161375204101205,1.0,0.38245007395744324,0.9340000152587891,0.0010000000474974513
0.00043484821799211204,1.0,0.3840409219264984,0.9344444274902344,0.0010000000474974513
0.0006042051827535033,1.0,0.38595327734947205,0.9357777833938599,0.0010000000474974513
0.00036524402094073594,1.0,0.38857632875442505,0.9366666674613953,0.0010000000474974513
0.00031442451290786266,1.0,0.3887549340724945,0.9364444613456726,0.0010000000474974513
0.0003806354070547968,1.0,0.3909437656402588,0.9362221956253052,0.0010000000474974513
0.00038618690450675786,1.0,0.39365214109420776,0.9351111054420471,0.0010000000474974513
0.0003553418500814587,1.0,0.3957922160625458,0.9353333115577698,0.0010000000474974513
0.00047359985182993114,1.0,0.39617469906806946,0.9357777833938599,0.0010000000474974513
0.00046948023373261094,1.0,0.394761860370636,0.9337777495384216,0.0010000000474974513
0.00027500034775584936,1.0,0.3957841992378235,0.9333333373069763,0.0010000000474974513
0.00027718942146748304,1.0,0.39896973967552185,0.9355555772781372,0.0010000000474974513
0.0003628103877417743,1.0,0.40263083577156067,0.9359999895095825,0.0010000000474974513
0.00032469595316797495,1.0,0.40553948283195496,0.9375555515289307,0.0010000000474974513
0.0002641988976392895,1.0,0.405884712934494,0.9366666674613953,0.0010000000474974513
0.0003611422434914857,1.0,0.4060639441013336,0.9366666674613953,0.0010000000474974513
0.0002565070171840489,1.0,0.4081258475780487,0.9362221956253052,0.0010000000474974513
0.00028093266882933676,1.0,0.40983209013938904,0.9364444613456726,0.0010000000474974513
0.00036807326250709593,1.0,0.4088595509529114,0.9368888735771179,0.0010000000474974513
0.00021953419491183013,1.0,0.4093152582645416,0.9366666674613953,0.0010000000474974513
0.00018594969878904521,1.0,0.4106558859348297,0.9364444613456726,0.0010000000474974513
0.0003376604581717402,1.0,0.4130758047103882,0.9351111054420471,0.0010000000474974513
0.0001868136168923229,1.0,0.4153229892253876,0.9351111054420471,0.0010000000474974513
0.00019276631064713,1.0,0.41521933674812317,0.9357777833938599,0.0010000000474974513
0.00015977254952304065,1.0,0.41578254103660583,0.9366666674613953,0.0010000000474974513
0.0002591153315734118,1.0,0.4177554249763489,0.9368888735771179,0.0010000000474974513
0.00015902558516245335,1.0,0.419109970331192,0.9362221956253052,0.0010000000474974513
0.0007111422019079328,1.0,0.41438916325569153,0.9319999814033508,0.0010000000474974513
0.0006474851397797465,1.0,0.40266478061676025,0.9311110973358154,0.0010000000474974513
0.00021931219089310616,1.0,0.3970092236995697,0.9284444451332092,0.0010000000474974513
0.00032012653537094593,1.0,0.39853715896606445,0.9319999814033508,0.0010000000474974513
0.0002431689208606258,1.0,0.40407025814056396,0.9337777495384216,0.0010000000474974513
0.00026513682678341866,1.0,0.41121408343315125,0.9359999895095825,0.0010000000474974513
0.00023643953318241984,1.0,0.4149620532989502,0.9364444613456726,0.0010000000474974513
0.00019210409664083272,1.0,0.41783440113067627,0.9368888735771179,0.0010000000474974513
0.00019721599528566003,1.0,0.42094674706459045,0.937333345413208,0.0010000000474974513
0.0001713671226752922,1.0,0.42291781306266785,0.937333345413208,0.0010000000474974513
0.0002620056038722396,1.0,0.42164596915245056,0.9364444613456726,0.0010000000474974513
0.0003372999490238726,1.0,0.4163318872451782,0.933555543422699,0.0010000000474974513
0.0001677951804595068,1.0,0.41549569368362427,0.9340000152587891,0.0010000000474974513
0.00017603895685169846,1.0,0.4185276925563812,0.9348888993263245,0.0010000000474974513
0.0001441273489035666,1.0,0.4214324355125427,0.9357777833938599,0.0010000000474974513
0.00014889267913531512,1.0,0.4248771369457245,0.9362221956253052,0.0010000000474974513
0.00014391858712770045,1.0,0.42842110991477966,0.9362221956253052,0.0010000000474974513
0.00014102866407483816,1.0,0.4297092854976654,0.9359999895095825,0.0010000000474974513
0.00018357530643697828,1.0,0.4290981590747833,0.9351111054420471,0.0010000000474974513
0.00020583445439115167,1.0,0.42804980278015137,0.9340000152587891,0.0010000000474974513
0.00020874942129012197,1.0,0.42621344327926636,0.9317777752876282,0.0010000000474974513
0.00022086022363509983,1.0,0.42427581548690796,0.9324444532394409,0.0010000000474974513
0.00026893592439591885,1.0,0.42426714301109314,0.9346666932106018,0.0010000000474974513
0.00022723394795320928,1.0,0.42937585711479187,0.9340000152587891,0.0010000000474974513
0.0002485232544131577,1.0,0.430820107460022,0.9340000152587891,0.0010000000474974513
0.00017186357581522316,1.0,0.43228352069854736,0.9342222213745117,0.0010000000474974513
0.0001605145662324503,1.0,0.43434348702430725,0.9346666932106018,0.0010000000474974513
0.00022128091950435191,1.0,0.43838849663734436,0.9357777833938599,0.0010000000474974513
0.0001006476377369836,1.0,0.4410191774368286,0.9366666674613953,0.0010000000474974513
0.00012172039714641869,1.0,0.4419020414352417,0.9364444613456726,0.0010000000474974513
0.00019095983589068055,1.0,0.4426482617855072,0.9359999895095825,0.0010000000474974513
0.00016712743672542274,1.0,0.44134050607681274,0.9353333115577698,0.0010000000474974513
0.0001777046563802287,1.0,0.44124796986579895,0.9355555772781372,0.0010000000474974513
0.00022092399012763053,1.0,0.4394332468509674,0.9340000152587891,0.0010000000474974513
0.00014471265603788197,1.0,0.4410259425640106,0.9340000152587891,0.0010000000474974513
0.00014161673607304692,1.0,0.4427284598350525,0.9342222213745117,0.0010000000474974513
0.00010213242057943717,1.0,0.4413720369338989,0.9328888654708862,0.0010000000474974513
0.0001188356545753777,1.0,0.4410380423069,0.9331111311912537,0.0010000000474974513
0.00014251272659748793,1.0,0.44127583503723145,0.933555543422699,0.0010000000474974513
0.00013163025141693652,1.0,0.4420721232891083,0.9353333115577698,0.0010000000474974513
0.00011439514491939917,1.0,0.4427548348903656,0.9357777833938599,0.0010000000474974513
0.00012255177716724575,1.0,0.4419150948524475,0.9351111054420471,0.0010000000474974513
0.0001810427929740399,1.0,0.44241076707839966,0.9337777495384216,0.0010000000474974513
8.908144809538499e-05,1.0,0.44332394003868103,0.9342222213745117,0.0010000000474974513
0.0001222517021233216,1.0,0.4449012875556946,0.9351111054420471,0.0010000000474974513
0.00013727699115406722,1.0,0.44436872005462646,0.9357777833938599,0.0010000000474974513
0.00010554109758231789,1.0,0.4426115155220032,0.9344444274902344,0.0010000000474974513
0.00013418176968116313,1.0,0.44302454590797424,0.9353333115577698,0.0010000000474974513
0.00022391453967429698,1.0,0.44464391469955444,0.9362221956253052,0.0005000000237487257
0.00033205639920197427,1.0,0.44385844469070435,0.9368888735771179,0.0005000000237487257
0.00011819466453744099,1.0,0.4428911805152893,0.9371111392974854,0.0005000000237487257
0.00025478852330707014,1.0,0.44286492466926575,0.9368888735771179,0.0005000000237487257
0.00011202277528354898,1.0,0.441363662481308,0.9359999895095825,0.0005000000237487257
9.925113408826292e-05,1.0,0.44178423285484314,0.9348888993263245,0.0005000000237487257
0.00017222329915966839,1.0,0.44217658042907715,0.9355555772781372,0.0005000000237487257
0.00010567332356004044,1.0,0.44207626581192017,0.9353333115577698,0.0005000000237487257
0.00014553095388691872,1.0,0.4439062476158142,0.9359999895095825,0.0005000000237487257
8.193894609576091e-05,1.0,0.4450405538082123,0.9357777833938599,0.0005000000237487257
8.342415821971372e-05,1.0,0.44464805722236633,0.9359999895095825,0.0005000000237487257
9.131272963713855e-05,1.0,0.44465669989585876,0.9362221956253052,0.0005000000237487257
0.00012724442058242857,1.0,0.44492119550704956,0.9357777833938599,0.0005000000237487257
9.169420809485018e-05,1.0,0.4460853636264801,0.9346666932106018,0.0005000000237487257
0.00013854911958333105,1.0,0.44720765948295593,0.9346666932106018,0.0005000000237487257
0.00016631344624329358,1.0,0.44813284277915955,0.9353333115577698,0.0005000000237487257
7.251799252117053e-05,1.0,0.4496128559112549,0.9362221956253052,0.0005000000237487257
7.633491622982547e-05,1.0,0.4506184160709381,0.9364444613456726,0.0005000000237487257
0.00012015060929115862,1.0,0.45071807503700256,0.9366666674613953,0.0005000000237487257
8.591407095082104e-05,1.0,0.4500819444656372,0.9364444613456726,0.0005000000237487257
7.801571337040514e-05,1.0,0.4498451352119446,0.9362221956253052,0.0005000000237487257
7.664690201636404e-05,1.0,0.4496048390865326,0.9364444613456726,0.0005000000237487257
9.537716687191278e-05,1.0,0.44989895820617676,0.9364444613456726,0.0005000000237487257
8.402612729696557e-05,1.0,0.45055845379829407,0.9362221956253052,0.0005000000237487257
0.00010829891107277945,1.0,0.45162302255630493,0.9364444613456726,0.0005000000237487257
0.0001205006119562313,1.0,0.4522656202316284,0.9364444613456726,0.0005000000237487257
0.0001745740883052349,1.0,0.4505327343940735,0.9362221956253052,0.0005000000237487257
6.343049608403817e-05,1.0,0.4506254196166992,0.9362221956253052,0.0005000000237487257
0.00011353755689924583,1.0,0.4506598711013794,0.9359999895095825,0.0005000000237487257
9.512231190456077e-05,1.0,0.4513331353664398,0.9359999895095825,0.0005000000237487257
0.00010082397784572095,1.0,0.45262253284454346,0.9355555772781372,0.0005000000237487257
8.894247730495408e-05,1.0,0.45345035195350647,0.9344444274902344,0.0005000000237487257
9.187035175273195e-05,1.0,0.45251020789146423,0.9340000152587891,0.0005000000237487257
8.854216866893694e-05,1.0,0.4517289996147156,0.9344444274902344,0.0005000000237487257
0.00010926357208518311,1.0,0.4495040476322174,0.9340000152587891,0.0005000000237487257
8.493001951137558e-05,1.0,0.4487055242061615,0.9337777495384216,0.0005000000237487257
0.0001019056435325183,1.0,0.4493327736854553,0.9344444274902344,0.0005000000237487257
0.0001224531006300822,1.0,0.4510398805141449,0.9357777833938599,0.0005000000237487257
6.958231824683025e-05,1.0,0.4526420831680298,0.9362221956253052,0.0005000000237487257
9.644243982620537e-05,1.0,0.4538091719150543,0.9359999895095825,0.0005000000237487257
0.00014803552767261863,1.0,0.45258933305740356,0.9348888993263245,0.0005000000237487257
9.685860277386382e-05,1.0,0.4515608847141266,0.9333333373069763,0.0005000000237487257
0.0001125436247093603,1.0,0.4504983723163605,0.9333333373069763,0.0005000000237487257
0.00011733883729903027,1.0,0.4495673179626465,0.933555543422699,0.0005000000237487257
0.0001331497769569978,1.0,0.4491579234600067,0.9342222213745117,0.0005000000237487257
0.00012565002543851733,1.0,0.4495558738708496,0.9364444613456726,0.0005000000237487257
8.988304762169719e-05,1.0,0.4496053159236908,0.9366666674613953,0.0005000000237487257
5.789465649286285e-05,1.0,0.44963183999061584,0.9366666674613953,0.0005000000237487257
5.657918882207014e-05,1.0,0.45063820481300354,0.9364444613456726,0.0005000000237487257
8.289863035315648e-05,1.0,0.4498739540576935,0.9364444613456726,0.0005000000237487257
6.318333907984197e-05,1.0,0.4495304524898529,0.9364444613456726,0.0005000000237487257
6.081542233005166e-05,1.0,0.45028501749038696,0.9362221956253052,0.0005000000237487257
0.00013225714792497456,1.0,0.45029202103614807,0.9353333115577698,0.0005000000237487257
6.732653127983212e-05,1.0,0.45103350281715393,0.9353333115577698,0.0005000000237487257
8.814177272142842e-05,1.0,0.4516690671443939,0.9359999895095825,0.0005000000237487257
7.488172559533268e-05,1.0,0.45352938771247864,0.9364444613456726,0.0005000000237487257
9.996139851864427e-05,1.0,0.45541444420814514,0.9368888735771179,0.0005000000237487257
0.00011226213246118277,1.0,0.45649290084838867,0.9368888735771179,0.0005000000237487257
5.980355490464717e-05,1.0,0.45756229758262634,0.9366666674613953,0.0005000000237487257
0.0001369452802464366,1.0,0.45795416831970215,0.9366666674613953,0.0005000000237487257
0.00010817762813530862,1.0,0.45421770215034485,0.9342222213745117,0.0005000000237487257
0.00011173789243912324,1.0,0.45275241136550903,0.9340000152587891,0.0005000000237487257
0.00015180770424194634,1.0,0.45211589336395264,0.9337777495384216,0.0005000000237487257
4.807408549822867e-05,1.0,0.4513970911502838,0.9340000152587891,0.0005000000237487257
6.134816067060456e-05,1.0,0.4526285231113434,0.9351111054420471,0.0005000000237487257
5.966772005194798e-05,1.0,0.45409417152404785,0.9359999895095825,0.0005000000237487257
5.196989877731539e-05,1.0,0.45454713702201843,0.9362221956253052,0.0005000000237487257
5.3754407417727634e-05,1.0,0.455449640750885,0.9359999895095825,0.0005000000237487257
9.394789958605543e-05,1.0,0.456843763589859,0.9357777833938599,0.0005000000237487257
0.0001250740169780329,1.0,0.46023041009902954,0.9357777833938599,0.0005000000237487257
8.216821879614145e-05,1.0,0.46154943108558655,0.9344444274902344,0.0005000000237487257
6.378575199050829e-05,1.0,0.46138808131217957,0.9342222213745117,0.0005000000237487257
7.196899969130754e-05,1.0,0.4606727957725525,0.9340000152587891,0.0005000000237487257
7.029531116131693e-05,1.0,0.4608026146888733,0.9340000152587891,0.0005000000237487257
6.497513095382601e-05,1.0,0.46140608191490173,0.9351111054420471,0.0005000000237487257
6.994685827521607e-05,1.0,0.46180635690689087,0.9355555772781372,0.0005000000237487257
9.636496542952955e-05,1.0,0.4626665711402893,0.9357777833938599,0.0005000000237487257
7.964883843669668e-05,1.0,0.46311771869659424,0.9362221956253052,0.0005000000237487257
6.876999395899475e-05,1.0,0.46337440609931946,0.9362221956253052,0.0005000000237487257
6.510204548249021e-05,1.0,0.4641939699649811,0.9366666674613953,0.0005000000237487257
6.716802454320714e-05,1.0,0.4644479751586914,0.9366666674613953,0.0005000000237487257
0.00010465220839250833,1.0,0.4612867832183838,0.9348888993263245,0.0005000000237487257
6.501285679405555e-05,1.0,0.46111708879470825,0.9340000152587891,0.0005000000237487257
5.0230632041348144e-05,1.0,0.46145859360694885,0.9346666932106018,0.0005000000237487257
7.733085658401251e-05,1.0,0.46188127994537354,0.9348888993263245,0.0005000000237487257
7.912998989922926e-05,1.0,0.4619497060775757,0.9357777833938599,0.0005000000237487257
4.2350657167844474e-05,1.0,0.46198520064353943,0.9362221956253052,0.0005000000237487257
9.782970300875604e-05,1.0,0.4600769281387329,0.9348888993263245,0.0005000000237487257
4.460757554625161e-05,1.0,0.45935091376304626,0.9348888993263245,0.0005000000237487257
6.078776641516015e-05,1.0,0.45964860916137695,0.9346666932106018,0.0005000000237487257
7.238642865559086e-05,1.0,0.4598368704319,0.9346666932106018,0.0005000000237487257
8.838286157697439e-05,1.0,0.4600295126438141,0.9348888993263245,0.0005000000237487257
8.909314055927098e-05,1.0,0.45774561166763306,0.9328888654708862,0.0005000000237487257
5.382381277740933e-05,1.0,0.4579372704029083,0.9326666593551636,0.0005000000237487257
0.00010539896902628243,1.0,0.4572140872478485,0.9326666593551636,0.0005000000237487257
9.143174975179136e-05,1.0,0.45482638478279114,0.9324444532394409,0.0005000000237487257
0.00011206176714040339,1.0,0.4563758671283722,0.9342222213745117,0.0005000000237487257
5.282152778818272e-05,1.0,0.45811256766319275,0.9353333115577698,0.0005000000237487257
6.610933633055538e-05,1.0,0.45930153131484985,0.9353333115577698,0.0002500000118743628
9.387090540258214e-05,1.0,0.4597589075565338,0.9346666932106018,0.0002500000118743628
5.240766404313035e-05,1.0,0.46061354875564575,0.9342222213745117,0.0002500000118743628
6.737464718753472e-05,1.0,0.46167925000190735,0.9344444274902344,0.0002500000118743628
6.84104670654051e-05,1.0,0.46245867013931274,0.9348888993263245,0.0002500000118743628
9.036996198119596e-05,1.0,0.46324247121810913,0.9353333115577698,0.0002500000118743628
0.0001287627819692716,1.0,0.46403422951698303,0.9357777833938599,0.0002500000118743628
5.354249879019335e-05,1.0,0.4618832468986511,0.9333333373069763,0.0002500000118743628
4.5724009396508336e-05,1.0,0.4619957208633423,0.9328888654708862,0.0002500000118743628
0.00013725814642384648,1.0,0.4623967409133911,0.9326666593551636,0.0002500000118743628
6.945666973479092e-05,1.0,0.4604811668395996,0.9322222471237183,0.0002500000118743628
6.538132583955303e-05,1.0,0.4604523777961731,0.9328888654708862,0.0002500000118743628
9.489425428910181e-05,1.0,0.46102458238601685,0.9337777495384216,0.0002500000118743628
5.595528637059033e-05,1.0,0.4619230628013611,0.9337777495384216,0.0002500000118743628
5.5506105127278715e-05,1.0,0.46288955211639404,0.9340000152587891,0.0002500000118743628
4.712613736046478e-05,1.0,0.46411508321762085,0.9342222213745117,0.0002500000118743628
7.082016963977367e-05,1.0,0.4643343687057495,0.9344444274902344,0.0002500000118743628
7.976787310326472e-05,1.0,0.4648769497871399,0.9344444274902344,0.0002500000118743628
6.22734660282731e-05,1.0,0.4656881093978882,0.9346666932106018,0.0002500000118743628
4.3500360334292054e-05,1.0,0.46614134311676025,0.9348888993263245,0.0002500000118743628
4.7737335989950225e-05,1.0,0.4665479063987732,0.9353333115577698,0.0002500000118743628
6.61954763927497e-05,1.0,0.467061311006546,0.9353333115577698,0.0002500000118743628
4.4154618080938235e-05,1.0,0.46740826964378357,0.9353333115577698,0.0002500000118743628
4.514452666626312e-05,1.0,0.4676191806793213,0.9353333115577698,0.0002500000118743628
0.00010950486466754228,1.0,0.4686684012413025,0.9359999895095825,0.0002500000118743628
6.047070928616449e-05,1.0,0.469091534614563,0.9364444613456726,0.0002500000118743628
5.9740628785220906e-05,1.0,0.4689619243144989,0.9364444613456726,0.0002500000118743628
5.4854110203450546e-05,1.0,0.4684467315673828,0.9359999895095825,0.0002500000118743628
5.1049122703261673e-05,1.0,0.4681439995765686,0.9357777833938599,0.0002500000118743628
6.257017230382189e-05,1.0,0.4682086110115051,0.9362221956253052,0.0002500000118743628
8.645906927995384e-05,1.0,0.469073086977005,0.9362221956253052,0.0002500000118743628
6.265740375965834e-05,1.0,0.46908724308013916,0.9359999895095825,0.0002500000118743628
7.138424552977085e-05,1.0,0.4684383273124695,0.9351111054420471,0.0002500000118743628
0.00018131006800103933,1.0,0.4693295359611511,0.9337777495384216,0.0002500000118743628
7.472166907973588e-05,1.0,0.4698568880558014,0.9326666593551636,0.0002500000118743628
7.494235615013167e-05,1.0,0.46964263916015625,0.9326666593551636,0.0002500000118743628
4.498618727666326e-05,1.0,0.4699092209339142,0.9331111311912537,0.0002500000118743628
5.897813389310613e-05,1.0,0.46999701857566833,0.933555543422699,0.0002500000118743628
5.161364970263094e-05,1.0,0.4697163701057434,0.9344444274902344,0.0002500000118743628
6.52251546853222e-05,1.0,0.4699237048625946,0.9344444274902344,0.0002500000118743628
9.999796020565554e-05,1.0,0.4696817398071289,0.9344444274902344,0.0002500000118743628
4.48591927124653e-05,1.0,0.46956706047058105,0.9351111054420471,0.0002500000118743628
5.3625026339432225e-05,1.0,0.46931010484695435,0.9346666932106018,0.0002500000118743628
5.812663584947586e-05,1.0,0.4694657623767853,0.9348888993263245,0.0002500000118743628
8.283392526209354e-05,1.0,0.4694935977458954,0.9355555772781372,0.0002500000118743628
9.963414049707353e-05,1.0,0.47104698419570923,0.9357777833938599,0.0002500000118743628
7.433506107190624e-05,1.0,0.4722477197647095,0.9357777833938599,0.0002500000118743628
4.3669082515407354e-05,1.0,0.4729161262512207,0.9364444613456726,0.0002500000118743628
6.407384353224188e-05,1.0,0.4730481207370758,0.9364444613456726,0.0002500000118743628
4.558427463052794e-05,1.0,0.4727209210395813,0.9359999895095825,0.0002500000118743628
4.480958159547299e-05,1.0,0.4726097583770752,0.9359999895095825,0.0001250000059371814
4.84766969748307e-05,1.0,0.4726285934448242,0.9362221956253052,0.0001250000059371814
7.595540228066966e-05,1.0,0.4727475047111511,0.9362221956253052,0.0001250000059371814
4.557134525384754e-05,1.0,0.47263607382774353,0.9364444613456726,0.0001250000059371814
6.169373955344781e-05,1.0,0.47214409708976746,0.9362221956253052,0.0001250000059371814
4.096658813068643e-05,1.0,0.4716357886791229,0.9359999895095825,0.0001250000059371814
5.221253013587557e-05,1.0,0.47177714109420776,0.9359999895095825,0.0001250000059371814
5.5229254940059036e-05,1.0,0.47167378664016724,0.9359999895095825,0.0001250000059371814
7.358630682574585e-05,1.0,0.47189566493034363,0.9357777833938599,0.0001250000059371814
0.00012782952398993075,1.0,0.4716140329837799,0.9359999895095825,0.0001250000059371814
4.857280873693526e-05,1.0,0.47170355916023254,0.9362221956253052,0.0001250000059371814
5.434644845081493e-05,1.0,0.4719064235687256,0.9362221956253052,0.0001250000059371814
5.506566594704054e-05,1.0,0.47245243191719055,0.9364444613456726,0.0001250000059371814
5.679284004145302e-05,1.0,0.4726358652114868,0.9364444613456726,0.0001250000059371814
7.05034181009978e-05,1.0,0.47266286611557007,0.9364444613456726,0.0001250000059371814
9.028676140587777e-05,1.0,0.4721999168395996,0.9355555772781372,0.0001250000059371814
7.133298640837893e-05,1.0,0.47171759605407715,0.9351111054420471,0.0001250000059371814
6.435022805817425e-05,1.0,0.47101327776908875,0.9348888993263245,0.0001250000059371814
7.113582250894979e-05,1.0,0.47081780433654785,0.9348888993263245,0.0001250000059371814
4.437863753992133e-05,1.0,0.4712374210357666,0.9351111054420471,0.0001250000059371814
5.714411963708699e-05,1.0,0.4716503322124481,0.9348888993263245,0.0001250000059371814
0.00012290754239074886,1.0,0.4708653390407562,0.9346666932106018,0.0001250000059371814
7.274182280525565e-05,1.0,0.4687802195549011,0.933555543422699,0.0001250000059371814
7.090991857694462e-05,1.0,0.4688569903373718,0.933555543422699,0.0001250000059371814
4.29242973041255e-05,1.0,0.46903857588768005,0.9337777495384216,0.0001250000059371814
5.83782275498379e-05,1.0,0.4695805013179779,0.9337777495384216,0.0001250000059371814
4.908063419861719e-05,1.0,0.4701457917690277,0.9344444274902344,0.0001250000059371814
9.692516323411837e-05,1.0,0.4708983302116394,0.9344444274902344,0.0001250000059371814
5.269572284305468e-05,1.0,0.47147390246391296,0.9344444274902344,0.0001250000059371814
5.4099844419397414e-05,1.0,0.4720747172832489,0.9342222213745117,0.0001250000059371814
4.783900294569321e-05,1.0,0.4725562036037445,0.9351111054420471,0.0001250000059371814
5.145760587765835e-05,1.0,0.4726272225379944,0.9351111054420471,0.0001250000059371814
4.2148200009251013e-05,1.0,0.47290143370628357,0.9351111054420471,0.0001250000059371814
5.210982635617256e-05,1.0,0.4729102551937103,0.9353333115577698,0.0001250000059371814
5.061839328845963e-05,1.0,0.47296974062919617,0.9353333115577698,0.0001250000059371814
4.912782969768159e-05,1.0,0.47343510389328003,0.9357777833938599,0.0001250000059371814
5.037875598645769e-05,1.0,0.4737880825996399,0.9357777833938599,0.0001250000059371814
5.748617695644498e-05,1.0,0.4742121994495392,0.9357777833938599,0.0001250000059371814
5.179749496164732e-05,1.0,0.4739258289337158,0.9355555772781372,0.0001250000059371814
3.960391040891409e-05,1.0,0.47313982248306274,0.9351111054420471,0.0001250000059371814
3.897238275385462e-05,1.0,0.4732658863067627,0.9351111054420471,0.0001250000059371814
4.125408668187447e-05,1.0,0.4736376404762268,0.9353333115577698,0.0001250000059371814
7.783731416566297e-05,1.0,0.47299060225486755,0.9351111054420471,0.0001250000059371814
4.070088471053168e-05,1.0,0.47304263710975647,0.9351111054420471,0.0001250000059371814
7.161629037000239e-05,1.0,0.47292453050613403,0.9348888993263245,0.0001250000059371814
3.988109529018402e-05,1.0,0.473087877035141,0.9355555772781372,0.0001250000059371814
3.924720658687875e-05,1.0,0.47350576519966125,0.9355555772781372,0.0001250000059371814
4.666875611292198e-05,1.0,0.4735245108604431,0.9348888993263245,0.0001250000059371814
5.4729294788558036e-05,1.0,0.473871648311615,0.9351111054420471,0.0001250000059371814
4.539306974038482e-05,1.0,0.4741889536380768,0.9355555772781372,0.0001250000059371814
4.659136902773753e-05,1.0,0.4743655025959015,0.9355555772781372,9.999999747378752e-05
4.1748073272174224e-05,1.0,0.4746701419353485,0.9357777833938599,9.999999747378752e-05
3.924979318981059e-05,1.0,0.47486409544944763,0.9357777833938599,9.999999747378752e-05
6.804091390222311e-05,1.0,0.4750956892967224,0.9359999895095825,9.999999747378752e-05
5.094586231280118e-05,1.0,0.47493353486061096,0.9357777833938599,9.999999747378752e-05
0.00013538873463403434,1.0,0.4749599099159241,0.9355555772781372,9.999999747378752e-05
4.911121868644841e-05,1.0,0.4749608337879181,0.9355555772781372,9.999999747378752e-05
5.1173199608456343e-05,1.0,0.474772185087204,0.9355555772781372,9.999999747378752e-05
4.5787230192217976e-05,1.0,0.47459039092063904,0.9355555772781372,9.999999747378752e-05
4.1087110730586573e-05,1.0,0.4742656648159027,0.9353333115577698,9.999999747378752e-05
3.785483568208292e-05,1.0,0.474161833524704,0.9355555772781372,9.999999747378752e-05
4.690476635005325e-05,1.0,0.47432371973991394,0.9353333115577698,9.999999747378752e-05
3.8607060560025275e-05,1.0,0.4744308888912201,0.9353333115577698,9.999999747378752e-05
6.113153358455747e-05,1.0,0.47355490922927856,0.9357777833938599,9.999999747378752e-05
3.396469401195645e-05,1.0,0.4730643928050995,0.9355555772781372,9.999999747378752e-05
3.427181945880875e-05,1.0,0.47312602400779724,0.9357777833938599,9.999999747378752e-05
6.025292896083556e-05,1.0,0.47364649176597595,0.9357777833938599,9.999999747378752e-05
6.245038093766198e-05,1.0,0.47381359338760376,0.9355555772781372,9.999999747378752e-05
4.399964745971374e-05,1.0,0.47403961420059204,0.9355555772781372,9.999999747378752e-05
0.0001143237022915855,1.0,0.4742850363254547,0.9355555772781372,9.999999747378752e-05
4.991957393940538e-05,1.0,0.4748266041278839,0.9340000152587891,9.999999747378752e-05
3.781267150770873e-05,1.0,0.47528189420700073,0.9340000152587891,9.999999747378752e-05
5.2738825615961105e-05,1.0,0.4757971465587616,0.9342222213745117,9.999999747378752e-05
7.495200406992808e-05,1.0,0.47596538066864014,0.9348888993263245,9.999999747378752e-05
3.8544003473361954e-05,1.0,0.4759396016597748,0.9359999895095825,9.999999747378752e-05
5.062391210230999e-05,1.0,0.47620224952697754,0.9359999895095825,9.999999747378752e-05
3.322593693155795e-05,1.0,0.47637251019477844,0.9359999895095825,9.999999747378752e-05
4.098664066987112e-05,1.0,0.47665560245513916,0.9362221956253052,9.999999747378752e-05
4.6544490032829344e-05,1.0,0.4767334461212158,0.9362221956253052,9.999999747378752e-05
6.624117668252438e-05,1.0,0.4765789806842804,0.9362221956253052,9.999999747378752e-05
7.048560655675828e-05,1.0,0.47617024183273315,0.9359999895095825,9.999999747378752e-05
7.697500404901803e-05,1.0,0.47631993889808655,0.9362221956253052,9.999999747378752e-05
5.017869989387691e-05,1.0,0.47652095556259155,0.9362221956253052,9.999999747378752e-05
2.697907439142e-05,1.0,0.47662797570228577,0.9362221956253052,9.999999747378752e-05
5.399071960709989e-05,1.0,0.47623735666275024,0.9357777833938599,9.999999747378752e-05
3.872016168315895e-05,1.0,0.4762342572212219,0.9357777833938599,9.999999747378752e-05
5.865297862328589e-05,1.0,0.47562143206596375,0.9357777833938599,9.999999747378752e-05
4.520150469033979e-05,1.0,0.4754507839679718,0.9357777833938599,9.999999747378752e-05
3.086519063799642e-05,1.0,0.47563058137893677,0.9357777833938599,9.999999747378752e-05
3.558718890417367e-05,1.0,0.4759107530117035,0.9357777833938599,9.999999747378752e-05
7.186729635577649e-05,1.0,0.4764105975627899,0.9355555772781372,9.999999747378752e-05
3.4315158700337633e-05,1.0,0.4767554700374603,0.9355555772781372,9.999999747378752e-05
0.0001689367782091722,1.0,0.47222700715065,0.9337777495384216,9.999999747378752e-05
6.123188359197229e-05,1.0,0.4684999883174896,0.9319999814033508,9.999999747378752e-05
5.1736002205871046e-05,1.0,0.4677146375179291,0.9319999814033508,9.999999747378752e-05
8.89607472345233e-05,1.0,0.46726757287979126,0.9319999814033508,9.999999747378752e-05
6.184549420140684e-05,1.0,0.4678291976451874,0.9328888654708862,9.999999747378752e-05
4.679179983213544e-05,1.0,0.4685932695865631,0.9342222213745117,9.999999747378752e-05
2.6223227905575186e-05,1.0,0.46919456124305725,0.9348888993263245,9.999999747378752e-05
3.704772097989917e-05,1.0,0.47003260254859924,0.9351111054420471,9.999999747378752e-05
3.327062586322427e-05,1.0,0.47074800729751587,0.9351111054420471,9.999999747378752e-05
3.8291997043415904e-05,1.0,0.47147509455680847,0.9357777833938599,9.999999747378752e-05
4.897925828117877e-05,1.0,0.47237613797187805,0.9357777833938599,9.999999747378752e-05
5.703716306015849e-05,1.0,0.4732252061367035,0.9362221956253052,9.999999747378752e-05
0.00010228765313513577,1.0,0.4759606122970581,0.9366666674613953,9.999999747378752e-05
3.512826151563786e-05,1.0,0.4772087633609772,0.9366666674613953,9.999999747378752e-05
5.147559932083823e-05,1.0,0.4776531457901001,0.9366666674613953,9.999999747378752e-05
8.045427966862917e-05,1.0,0.47484973073005676,0.9366666674613953,9.999999747378752e-05
4.7907218686304986e-05,1.0,0.47304078936576843,0.9357777833938599,9.999999747378752e-05
3.493681288091466e-05,1.0,0.47285205125808716,0.9357777833938599,9.999999747378752e-05
3.825467865681276e-05,1.0,0.4734613299369812,0.9357777833938599,9.999999747378752e-05
6.189213308971375e-05,1.0,0.474026083946228,0.9357777833938599,9.999999747378752e-05
3.3922762668225914e-05,1.0,0.4743801951408386,0.9357777833938599,9.999999747378752e-05
4.123951657675207e-05,1.0,0.47501835227012634,0.9359999895095825,9.999999747378752e-05
4.6949480747571215e-05,1.0,0.4757899343967438,0.9364444613456726,9.999999747378752e-05
3.634398672147654e-05,1.0,0.47646284103393555,0.9364444613456726,9.999999747378752e-05
3.3960415748879313e-05,1.0,0.4769192039966583,0.9364444613456726,9.999999747378752e-05
4.3925778300035745e-05,1.0,0.4770077168941498,0.9364444613456726,9.999999747378752e-05
3.574495713110082e-05,1.0,0.4769953489303589,0.9364444613456726,9.999999747378752e-05
8.304157381644472e-05,1.0,0.4769963026046753,0.9364444613456726,9.999999747378752e-05
5.358766429708339e-05,1.0,0.4763984978199005,0.9359999895095825,9.999999747378752e-05
4.208463724353351e-05,1.0,0.4764209985733032,0.9359999895095825,9.999999747378752e-05
3.862782250507735e-05,1.0,0.47679203748703003,0.9359999895095825,9.999999747378752e-05
3.0511660952470265e-05,1.0,0.47726741433143616,0.9359999895095825,9.999999747378752e-05
4.029549381812103e-05,1.0,0.4774978756904602,0.9359999895095825,9.999999747378752e-05
3.325877332827076e-05,1.0,0.47771283984184265,0.9359999895095825,9.999999747378752e-05
6.434308306779712e-05,1.0,0.47816595435142517,0.9359999895095825,9.999999747378752e-05
3.893834582413547e-05,1.0,0.47840940952301025,0.9359999895095825,9.999999747378752e-05
3.47512868756894e-05,1.0,0.4787513017654419,0.9359999895095825,9.999999747378752e-05
2.6433788661961444e-05,1.0,0.47904735803604126,0.9359999895095825,9.999999747378752e-05
4.3183656089240685e-05,1.0,0.4792734384536743,0.9359999895095825,9.999999747378752e-05
4.353878102847375e-05,1.0,0.4793008863925934,0.9364444613456726,9.999999747378752e-05
4.777854337589815e-05,1.0,0.4794001281261444,0.9364444613456726,9.999999747378752e-05
2.5543875381117687e-05,1.0,0.47953253984451294,0.9364444613456726,9.999999747378752e-05
0.00014141325664240867,1.0,0.475997656583786,0.9315555691719055,9.999999747378752e-05
4.90833590447437e-05,1.0,0.4785357117652893,0.9284444451332092,9.999999747378752e-05
5.5609165428904817e-05,1.0,0.47793257236480713,0.9284444451332092,9.999999747378752e-05
5.1714276196435094e-05,1.0,0.4764113426208496,0.9293333292007446,9.999999747378752e-05
4.765060657518916e-05,1.0,0.47548702359199524,0.9297778010368347,9.999999747378752e-05
5.784913446404971e-05,1.0,0.4753805994987488,0.9324444532394409,9.999999747378752e-05
5.9750600485131145e-05,1.0,0.4751794636249542,0.9342222213745117,9.999999747378752e-05
4.013406942249276e-05,1.0,0.47595861554145813,0.9344444274902344,9.999999747378752e-05
3.197941987309605e-05,1.0,0.47686338424682617,0.9348888993263245,9.999999747378752e-05
6.845707684988156e-05,1.0,0.47812750935554504,0.9351111054420471,9.999999747378752e-05
3.778512473218143e-05,1.0,0.4792955219745636,0.9344444274902344,9.999999747378752e-05
3.838340126094408e-05,1.0,0.48021548986434937,0.9351111054420471,9.999999747378752e-05
4.653595533454791e-05,1.0,0.48111969232559204,0.9353333115577698,9.999999747378752e-05
8.635441190563142e-05,1.0,0.4785679280757904,0.9340000152587891,9.999999747378752e-05
4.0286206058226526e-05,1.0,0.4774259030818939,0.9340000152587891,9.999999747378752e-05
4.089255162398331e-05,1.0,0.4768058955669403,0.9337777495384216,9.999999747378752e-05
5.0958919018739834e-05,1.0,0.47701069712638855,0.9344444274902344,9.999999747378752e-05
3.801193815888837e-05,1.0,0.4775720536708832,0.9344444274902344,9.999999747378752e-05
8.584070019423962e-05,1.0,0.47902950644493103,0.9346666932106018,9.999999747378752e-05
4.797104702447541e-05,1.0,0.47979193925857544,0.9355555772781372,9.999999747378752e-05
3.57466924469918e-05,1.0,0.480364054441452,0.9355555772781372,9.999999747378752e-05
3.487967114779167e-05,1.0,0.4806504547595978,0.9355555772781372,9.999999747378752e-05
3.207923873560503e-05,1.0,0.48088037967681885,0.9355555772781372,9.999999747378752e-05
3.010196815012023e-05,1.0,0.481363445520401,0.9357777833938599,9.999999747378752e-05
3.754584395210259e-05,1.0,0.48138031363487244,0.9359999895095825,9.999999747378752e-05
3.9208895032061264e-05,1.0,0.4814213216304779,0.9359999895095825,9.999999747378752e-05
3.624728924478404e-05,1.0,0.4819768965244293,0.9359999895095825,9.999999747378752e-05
4.2442385165486485e-05,1.0,0.48257356882095337,0.9359999895095825,9.999999747378752e-05
3.7705074646510184e-05,1.0,0.4827575981616974,0.9359999895095825,9.999999747378752e-05
3.7871493987040594e-05,1.0,0.4827539026737213,0.9359999895095825,9.999999747378752e-05
2.992120062117465e-05,1.0,0.48272764682769775,0.9359999895095825,9.999999747378752e-05
4.920172432321124e-05,1.0,0.48287636041641235,0.9359999895095825,9.999999747378752e-05
4.0807157347444445e-05,1.0,0.48280659317970276,0.9359999895095825,9.999999747378752e-05
4.352135874796659e-05,1.0,0.4828299582004547,0.9359999895095825,9.999999747378752e-05
3.997413659817539e-05,1.0,0.48287200927734375,0.9357777833938599,9.999999747378752e-05
5.031752880313434e-05,1.0,0.4824346899986267,0.9355555772781372,9.999999747378752e-05
6.856350955786183e-05,1.0,0.4816846251487732,0.9351111054420471,9.999999747378752e-05
3.4675180359045044e-05,1.0,0.4795762896537781,0.9346666932106018,9.999999747378752e-05
5.5232645536307245e-05,1.0,0.4796030819416046,0.9346666932106018,9.999999747378752e-05
3.106581425527111e-05,1.0,0.47964024543762207,0.9344444274902344,9.999999747378752e-05
4.502513911575079e-05,1.0,0.47978368401527405,0.9344444274902344,9.999999747378752e-05
3.341466435813345e-05,1.0,0.47967252135276794,0.9344444274902344,9.999999747378752e-05
4.819436071556993e-05,1.0,0.4801785945892334,0.9346666932106018,9.999999747378752e-05
2.4861996280378662e-05,1.0,0.48079192638397217,0.9351111054420471,9.999999747378752e-05
2.9707989597227424e-05,1.0,0.4813305139541626,0.9355555772781372,9.999999747378752e-05
3.6898552934871987e-05,1.0,0.4820273518562317,0.9357777833938599,9.999999747378752e-05
3.318187009426765e-05,1.0,0.48216432332992554,0.9357777833938599,9.999999747378752e-05
6.779051182093099e-05,1.0,0.4821576476097107,0.9357777833938599,9.999999747378752e-05
3.051864041481167e-05,1.0,0.48204004764556885,0.9362221956253052,9.999999747378752e-05
6.670100992778316e-05,1.0,0.48170626163482666,0.9348888993263245,9.999999747378752e-05
3.551024565240368e-05,1.0,0.48196712136268616,0.9346666932106018,9.999999747378752e-05
3.9674214349361137e-05,1.0,0.4823116958141327,0.9348888993263245,9.999999747378752e-05
4.8643512855051085e-05,1.0,0.4821343421936035,0.9346666932106018,9.999999747378752e-05
3.01733107335167e-05,1.0,0.4819021224975586,0.9348888993263245,9.999999747378752e-05
7.375897257588804e-05,1.0,0.4833514392375946,0.9353333115577698,9.999999747378752e-05
3.198353442712687e-05,1.0,0.48387593030929565,0.9353333115577698,9.999999747378752e-05
2.7856263841385953e-05,1.0,0.4842008352279663,0.9353333115577698,9.999999747378752e-05
7.050626300042495e-05,1.0,0.48404186964035034,0.9359999895095825,9.999999747378752e-05
0.0001570328458910808,1.0,0.4808602035045624,0.9342222213745117,9.999999747378752e-05
6.40965808997862e-05,1.0,0.4797082245349884,0.9315555691719055,9.999999747378752e-05
3.391123391338624e-05,1.0,0.47942301630973816,0.9315555691719055,9.999999747378752e-05
3.513450064929202e-05,1.0,0.4787743091583252,0.9326666593551636,9.999999747378752e-05
9.970760584110394e-05,1.0,0.4792347550392151,0.9340000152587891,9.999999747378752e-05
2.474230495863594e-05,1.0,0.48048117756843567,0.9351111054420471,9.999999747378752e-05
5.2160496124997735e-05,1.0,0.4822002053260803,0.9353333115577698,9.999999747378752e-05
6.354743527481332e-05,1.0,0.4830875098705292,0.9353333115577698,9.999999747378752e-05
8.161849837051705e-05,1.0,0.48460328578948975,0.9357777833938599,9.999999747378752e-05
6.9143992732279e-05,1.0,0.48587244749069214,0.9359999895095825,9.999999747378752e-05
3.773045682464726e-05,1.0,0.48677685856819153,0.9362221956253052,9.999999747378752e-05
2.7105497792945243e-05,1.0,0.4869838356971741,0.9366666674613953,9.999999747378752e-05
5.648594378726557e-05,1.0,0.4870680868625641,0.9362221956253052,9.999999747378752e-05
4.864256698056124e-05,1.0,0.48719358444213867,0.9359999895095825,9.999999747378752e-05
3.2796990126371384e-05,1.0,0.48742279410362244,0.9366666674613953,9.999999747378752e-05
2.256619518448133e-05,1.0,0.48756104707717896,0.9368888735771179,9.999999747378752e-05
2.6813499061972834e-05,1.0,0.48744216561317444,0.9366666674613953,9.999999747378752e-05
3.529285459080711e-05,1.0,0.4868290424346924,0.9364444613456726,9.999999747378752e-05
2.847932410077192e-05,1.0,0.4869162440299988,0.9362221956253052,9.999999747378752e-05
4.686637839768082e-05,1.0,0.48714479804039,0.9362221956253052,9.999999747378752e-05
4.5178116124588996e-05,1.0,0.48669692873954773,0.9359999895095825,9.999999747378752e-05
3.658292189356871e-05,1.0,0.48640647530555725,0.9359999895095825,9.999999747378752e-05
4.978424476576038e-05,1.0,0.48733365535736084,0.9359999895095825,9.999999747378752e-05
4.543902832665481e-05,1.0,0.4880037009716034,0.9357777833938599,9.999999747378752e-05
4.2036906961584464e-05,1.0,0.4870324432849884,0.9359999895095825,9.999999747378752e-05
2.7789468731498346e-05,1.0,0.48628321290016174,0.9357777833938599,9.999999747378752e-05
5.655059067066759e-05,1.0,0.4848727881908417,0.9362221956253052,9.999999747378752e-05
2.3311813492910005e-05,1.0,0.4838177561759949,0.9357777833938599,9.999999747378752e-05
3.315907088108361e-05,1.0,0.48363786935806274,0.9355555772781372,9.999999747378752e-05
3.402510265004821e-05,1.0,0.4830537736415863,0.9359999895095825,9.999999747378752e-05
3.9959984860615805e-05,1.0,0.4837735891342163,0.9359999895095825,9.999999747378752e-05
2.326950925635174e-05,1.0,0.48424771428108215,0.9355555772781372,9.999999747378752e-05
0.00014224101323634386,1.0,0.4814998507499695,0.929111123085022,9.999999747378752e-05
3.914471380994655e-05,1.0,0.4814265966415405,0.9277777671813965,9.999999747378752e-05
3.384741285117343e-05,1.0,0.479954332113266,0.9282222390174866,9.999999747378752e-05
7.186466973507777e-05,1.0,0.480122834444046,0.9297778010368347,9.999999747378752e-05
3.183820444974117e-05,1.0,0.48028281331062317,0.9324444532394409,9.999999747378752e-05
3.305334394099191e-05,1.0,0.48131465911865234,0.9337777495384216,9.999999747378752e-05
3.3359905501129106e-05,1.0,0.48231858015060425,0.9346666932106018,9.999999747378752e-05
3.637472036643885e-05,1.0,0.48268821835517883,0.9348888993263245,9.999999747378752e-05
4.398506644065492e-05,1.0,0.4832371473312378,0.9348888993263245,9.999999747378752e-05
8.026986324694008e-05,1.0,0.4847625195980072,0.9351111054420471,9.999999747378752e-05
2.9729279049206525e-05,1.0,0.4859749376773834,0.9355555772781372,9.999999747378752e-05
4.369800808490254e-05,1.0,0.4870976507663727,0.9359999895095825,9.999999747378752e-05
2.9042688765912317e-05,1.0,0.4877830445766449,0.9357777833938599,9.999999747378752e-05
4.320057632867247e-05,1.0,0.4883841276168823,0.9362221956253052,9.999999747378752e-05
5.315869930200279e-05,1.0,0.48923882842063904,0.9362221956253052,9.999999747378752e-05
2.7211528504267335e-05,1.0,0.48961755633354187,0.9364444613456726,9.999999747378752e-05
3.3057574910344556e-05,1.0,0.4899214804172516,0.9364444613456726,9.999999747378752e-05
4.5087188482284546e-05,1.0,0.48981696367263794,0.9362221956253052,9.999999747378752e-05
3.99981472583022e-05,1.0,0.48898550868034363,0.9359999895095825,9.999999747378752e-05
6.009670323692262e-05,1.0,0.48391199111938477,0.9342222213745117,9.999999747378752e-05
4.457316026673652e-05,1.0,0.4829440116882324,0.9340000152587891,9.999999747378752e-05
3.793718497036025e-05,1.0,0.48352208733558655,0.9340000152587891,9.999999747378752e-05
2.4921695512603037e-05,1.0,0.48415064811706543,0.9346666932106018,9.999999747378752e-05
3.4241053072037175e-05,1.0,0.4849889874458313,0.9357777833938599,9.999999747378752e-05
2.5403260224265978e-05,1.0,0.485939621925354,0.9357777833938599,9.999999747378752e-05
4.394513234728947e-05,1.0,0.48719847202301025,0.9359999895095825,9.999999747378752e-05
4.323856774135493e-05,1.0,0.4886479377746582,0.9357777833938599,9.999999747378752e-05
2.5712832211866044e-05,1.0,0.4894523620605469,0.9353333115577698,9.999999747378752e-05
5.026266444474459e-05,1.0,0.4901840388774872,0.9353333115577698,9.999999747378752e-05
2.982907426485326e-05,1.0,0.49097004532814026,0.9355555772781372,9.999999747378752e-05
2.477744965290185e-05,1.0,0.49109283089637756,0.9355555772781372,9.999999747378752e-05
3.5542714613256976e-05,1.0,0.49127712845802307,0.9355555772781372,9.999999747378752e-05
2.0193894670228474e-05,1.0,0.4915030300617218,0.9359999895095825,9.999999747378752e-05
4.5356522605288774e-05,1.0,0.4922095239162445,0.9364444613456726,9.999999747378752e-05
2.3886505005066283e-05,1.0,0.49272119998931885,0.9366666674613953,9.999999747378752e-05
3.4632499591680244e-05,1.0,0.49269378185272217,0.9366666674613953,9.999999747378752e-05
1.999382220674306e-05,1.0,0.49246424436569214,0.9366666674613953,9.999999747378752e-05
8.287561649922282e-05,1.0,0.48560383915901184,0.9342222213745117,9.999999747378752e-05
4.121765596210025e-05,1.0,0.48284587264060974,0.9333333373069763,9.999999747378752e-05
3.405884126550518e-05,1.0,0.4824557304382324,0.9337777495384216,9.999999747378752e-05
2.8502252462203614e-05,1.0,0.48305565118789673,0.9342222213745117,9.999999747378752e-05
3.0391691325348802e-05,1.0,0.48439350724220276,0.9355555772781372,9.999999747378752e-05
2.4930455765570514e-05,1.0,0.48576539754867554,0.9355555772781372,9.999999747378752e-05
3.516686774673872e-05,1.0,0.4871601462364197,0.9353333115577698,9.999999747378752e-05
3.424035821808502e-05,1.0,0.48853763937950134,0.9353333115577698,9.999999747378752e-05
3.426099647185765e-05,1.0,0.48994526267051697,0.9359999895095825,9.999999747378752e-05
2.722837780311238e-05,1.0,0.490723580121994,0.9359999895095825,9.999999747378752e-05
1.7861379092209972e-05,1.0,0.49092361330986023,0.9357777833938599,9.999999747378752e-05
2.1049470888101496e-05,1.0,0.4910336434841156,0.9357777833938599,9.999999747378752e-05
2.8950247724424116e-05,1.0,0.4914577901363373,0.9364444613456726,9.999999747378752e-05
2.6673526008380577e-05,1.0,0.49169155955314636,0.9362221956253052,9.999999747378752e-05
3.9976810512598604e-05,1.0,0.4921393096446991,0.9366666674613953,9.999999747378752e-05
2.5083161744987592e-05,1.0,0.49268198013305664,0.9364444613456726,9.999999747378752e-05
3.293777990620583e-05,1.0,0.4926649332046509,0.9364444613456726,9.999999747378752e-05
5.415720079327002e-05,1.0,0.49333155155181885,0.9366666674613953,9.999999747378752e-05
2.5732235371833667e-05,1.0,0.493405818939209,0.9366666674613953,9.999999747378752e-05
2.7587695512920618e-05,1.0,0.4933946430683136,0.9364444613456726,9.999999747378752e-05
2.0373559891595505e-05,1.0,0.4933990240097046,0.9362221956253052,9.999999747378752e-05
1.9925140804843977e-05,1.0,0.4933375120162964,0.9362221956253052,9.999999747378752e-05
2.9786333470838144e-05,1.0,0.4932461380958557,0.9362221956253052,9.999999747378752e-05
2.50979919655947e-05,1.0,0.4929494857788086,0.9357777833938599,9.999999747378752e-05
3.3199441531905904e-05,1.0,0.4926876723766327,0.9357777833938599,9.999999747378752e-05
2.5917270249919966e-05,1.0,0.4921903610229492,0.9355555772781372,9.999999747378752e-05
3.391374048078433e-05,1.0,0.49139925837516785,0.9355555772781372,9.999999747378752e-05
2.776494511635974e-05,1.0,0.4907641112804413,0.9355555772781372,9.999999747378752e-05
2.7563486582948826e-05,1.0,0.49121934175491333,0.9355555772781372,9.999999747378752e-05
2.53976795647759e-05,1.0,0.4916675388813019,0.9355555772781372,9.999999747378752e-05
5.5836680985521525e-05,1.0,0.49312955141067505,0.9359999895095825,9.999999747378752e-05
3.4548185794847086e-05,1.0,0.4938724935054779,0.9353333115577698,9.999999747378752e-05
3.1363793823402375e-05,1.0,0.4937845468521118,0.9353333115577698,9.999999747378752e-05
3.2084986742120236e-05,1.0,0.4939606785774231,0.9351111054420471,9.999999747378752e-05
6.536710861837491e-05,1.0,0.4938511848449707,0.9346666932106018,9.999999747378752e-05
2.289704207214527e-05,1.0,0.4937857985496521,0.9346666932106018,9.999999747378752e-05
1.922181218105834e-05,1.0,0.4932612180709839,0.9355555772781372,9.999999747378752e-05
4.0689996239962056e-05,1.0,0.493900865316391,0.9355555772781372,9.999999747378752e-05
2.3845883333706297e-05,1.0,0.494096040725708,0.9357777833938599,9.999999747378752e-05
2.6303894628654234e-05,1.0,0.49421873688697815,0.9353333115577698,9.999999747378752e-05
4.308033749111928e-05,1.0,0.49420860409736633,0.9353333115577698,9.999999747378752e-05
2.386802589171566e-05,1.0,0.4940764307975769,0.9362221956253052,9.999999747378752e-05
7.171880133682862e-05,1.0,0.49266883730888367,0.9355555772781372,9.999999747378752e-05
2.477502857800573e-05,1.0,0.491272509098053,0.9311110973358154,9.999999747378752e-05
2.3015198166831397e-05,1.0,0.4905450940132141,0.9304444193840027,9.999999747378752e-05
3.131786797894165e-05,1.0,0.48844578862190247,0.9322222471237183,9.999999747378752e-05
4.8908579628914595e-05,1.0,0.48815488815307617,0.9342222213745117,9.999999747378752e-05
3.2421732612419873e-05,1.0,0.48860862851142883,0.9351111054420471,9.999999747378752e-05
2.699026845220942e-05,1.0,0.4891042709350586,0.9362221956253052,9.999999747378752e-05
3.9906859456095845e-05,1.0,0.4903251528739929,0.9366666674613953,9.999999747378752e-05
4.269118289812468e-05,1.0,0.4876645505428314,0.9353333115577698,9.999999747378752e-05
2.2270673071034253e-05,1.0,0.4866722524166107,0.9348888993263245,9.999999747378752e-05
2.2907443053554744e-05,1.0,0.4869546890258789,0.9353333115577698,9.999999747378752e-05
2.57372284977464e-05,1.0,0.4883584976196289,0.9359999895095825,9.999999747378752e-05
1.9739456547540613e-05,1.0,0.4893513321876526,0.9364444613456726,9.999999747378752e-05
2.524897900002543e-05,1.0,0.4901064336299896,0.9362221956253052,9.999999747378752e-05
2.318608676432632e-05,1.0,0.4912755489349365,0.9364444613456726,9.999999747378752e-05
3.985170405940153e-05,1.0,0.4923839569091797,0.9364444613456726,9.999999747378752e-05
1.2650150893023238e-05,1.0,0.4930556118488312,0.9366666674613953,9.999999747378752e-05
2.1002399080316536e-05,1.0,0.4937744736671448,0.9364444613456726,9.999999747378752e-05
1.7463275071349926e-05,1.0,0.49447834491729736,0.9362221956253052,9.999999747378752e-05
3.6953581002308056e-05,1.0,0.4950655400753021,0.9364444613456726,9.999999747378752e-05
3.040595584025141e-05,1.0,0.49475210905075073,0.9366666674613953,9.999999747378752e-05
1.6080761270131916e-05,1.0,0.4943373501300812,0.9364444613456726,9.999999747378752e-05
2.2552761947736144e-05,1.0,0.49460670351982117,0.9364444613456726,9.999999747378752e-05
3.940780879929662e-05,1.0,0.495929092168808,0.9364444613456726,9.999999747378752e-05
1.689904456725344e-05,1.0,0.49719470739364624,0.9366666674613953,9.999999747378752e-05
2.1351868781493977e-05,1.0,0.49775755405426025,0.9368888735771179,9.999999747378752e-05
2.563541420386173e-05,1.0,0.497662216424942,0.9368888735771179,9.999999747378752e-05
2.8676957299467176e-05,1.0,0.4973081648349762,0.9368888735771179,9.999999747378752e-05
0.00010400111204944551,1.0,0.4930889904499054,0.9357777833938599,9.999999747378752e-05
2.0933892301400192e-05,1.0,0.4897991120815277,0.9308888912200928,9.999999747378752e-05
3.759964238270186e-05,1.0,0.48384764790534973,0.9311110973358154,9.999999747378752e-05
4.245026138960384e-05,1.0,0.48224949836730957,0.9340000152587891,9.999999747378752e-05
2.2502834326587617e-05,1.0,0.4835738241672516,0.9355555772781372,9.999999747378752e-05
2.6703826733864844e-05,1.0,0.4863322079181671,0.9366666674613953,9.999999747378752e-05
2.7536831112229265e-05,1.0,0.48828375339508057,0.9366666674613953,9.999999747378752e-05
1.800312202249188e-05,1.0,0.49000391364097595,0.9368888735771179,9.999999747378752e-05
2.0939483874826692e-05,1.0,0.4913703203201294,0.9368888735771179,9.999999747378752e-05
3.9711216231808066e-05,1.0,0.4915868639945984,0.9362221956253052,9.999999747378752e-05
2.6121258997591212e-05,1.0,0.49116796255111694,0.9355555772781372,9.999999747378752e-05
1.9773680833168328e-05,1.0,0.49183452129364014,0.9355555772781372,9.999999747378752e-05
2.207230863859877e-05,1.0,0.49294477701187134,0.9362221956253052,9.999999747378752e-05
2.6279816665919498e-05,1.0,0.49282151460647583,0.9364444613456726,9.999999747378752e-05
1.5397574316011742e-05,1.0,0.4932195544242859,0.9368888735771179,9.999999747378752e-05
3.2641564757796004e-05,1.0,0.4946291148662567,0.9371111392974854,9.999999747378752e-05
4.657596946344711e-05,1.0,0.49706554412841797,0.9359999895095825,9.999999747378752e-05
1.4169049791235011e-05,1.0,0.49845191836357117,0.9348888993263245,9.999999747378752e-05
3.4353295632172376e-05,1.0,0.4981658458709717,0.9340000152587891,9.999999747378752e-05
2.1625655790558085e-05,1.0,0.4981623888015747,0.9344444274902344,9.999999747378752e-05
3.740819374797866e-05,1.0,0.4983229637145996,0.9348888993263245,9.999999747378752e-05
2.3821345166652463e-05,1.0,0.4969380497932434,0.9351111054420471,9.999999747378752e-05
1.6909414625843056e-05,1.0,0.4966992139816284,0.9357777833938599,9.999999747378752e-05
2.234685052826535e-05,1.0,0.4969753623008728,0.9364444613456726,9.999999747378752e-05
3.916275818482973e-05,1.0,0.49829205870628357,0.9362221956253052,9.999999747378752e-05
4.0728024032432586e-05,1.0,0.4992952048778534,0.9364444613456726,9.999999747378752e-05
1.7231874153367244e-05,1.0,0.4992979168891907,0.9366666674613953,9.999999747378752e-05
2.3969660105649382e-05,1.0,0.49915173649787903,0.9366666674613953,9.999999747378752e-05
1.8528122382122092e-05,1.0,0.49978065490722656,0.9366666674613953,9.999999747378752e-05
2.1822981580044143e-05,1.0,0.5000261664390564,0.9364444613456726,9.999999747378752e-05
4.6031222154852e-05,1.0,0.5005700588226318,0.9364444613456726,9.999999747378752e-05
2.197041430918034e-05,1.0,0.5022139549255371,0.9364444613456726,9.999999747378752e-05
1.8782435290631838e-05,1.0,0.5031474828720093,0.9364444613456726,9.999999747378752e-05
2.2596494090976194e-05,1.0,0.5035340189933777,0.9364444613456726,9.999999747378752e-05
2.4423767172265798e-05,1.0,0.5039099454879761,0.9366666674613953,9.999999747378752e-05
2.1644616936100647e-05,1.0,0.5046380162239075,0.9366666674613953,9.999999747378752e-05
1.8555609130999073e-05,1.0,0.5044835805892944,0.9368888735771179,9.999999747378752e-05
2.5237306545022875e-05,1.0,0.5015395879745483,0.9364444613456726,9.999999747378752e-05
1.4572379768651444e-05,1.0,0.4998288154602051,0.9359999895095825,9.999999747378752e-05
2.6221832740702666e-05,1.0,0.4991920590400696,0.9357777833938599,9.999999747378752e-05
1.7069989553419873e-05,1.0,0.49829599261283875,0.9357777833938599,9.999999747378752e-05
1.4927232768968679e-05,1.0,0.4983702301979065,0.9357777833938599,9.999999747378752e-05
2.220213536929805e-05,1.0,0.4993838965892792,0.9359999895095825,9.999999747378752e-05
1.5657147741876543e-05,1.0,0.5004456639289856,0.9359999895095825,9.999999747378752e-05
4.727644773083739e-05,1.0,0.5002176761627197,0.9364444613456726,9.999999747378752e-05
3.271614696132019e-05,1.0,0.4961790442466736,0.9331111311912537,9.999999747378752e-05
3.1615451007382944e-05,1.0,0.4962586760520935,0.9328888654708862,9.999999747378752e-05
3.662412200355902e-05,1.0,0.49628758430480957,0.9346666932106018,9.999999747378752e-05
2.2918551621842198e-05,1.0,0.49616363644599915,0.9362221956253052,9.999999747378752e-05
3.378218025318347e-05,1.0,0.4966199994087219,0.9359999895095825,9.999999747378752e-05
2.100095480273012e-05,1.0,0.49753281474113464,0.9359999895095825,9.999999747378752e-05
1.407225863658823e-05,1.0,0.4982721209526062,0.9359999895095825,9.999999747378752e-05
8.271384285762906e-05,1.0,0.49196407198905945,0.9364444613456726,9.999999747378752e-05
2.4132237740559503e-05,1.0,0.4856323301792145,0.9362221956253052,9.999999747378752e-05
2.402415884716902e-05,1.0,0.4854559898376465,0.9362221956253052,9.999999747378752e-05
2.2990321667748503e-05,1.0,0.4878428876399994,0.9364444613456726,9.999999747378752e-05
1.9863515262841247e-05,1.0,0.4906144142150879,0.9368888735771179,9.999999747378752e-05
2.205755481554661e-05,1.0,0.4934045672416687,0.9368888735771179,9.999999747378752e-05
2.9280490707606077e-05,1.0,0.49538183212280273,0.9364444613456726,9.999999747378752e-05
2.1435815142467618e-05,1.0,0.49805593490600586,0.9355555772781372,9.999999747378752e-05
1.835171497077681e-05,1.0,0.49987277388572693,0.9355555772781372,9.999999747378752e-05
1.332563169853529e-05,1.0,0.5010156035423279,0.9357777833938599,9.999999747378752e-05
1.6196321666939184e-05,1.0,0.502227783203125,0.9362221956253052,9.999999747378752e-05
1.8174570868723094e-05,1.0,0.5030179023742676,0.9362221956253052,9.999999747378752e-05
1.4871424355078489e-05,1.0,0.5037308931350708,0.9362221956253052,9.999999747378752e-05
2.0058136215084232e-05,1.0,0.5036717653274536,0.9364444613456726,9.999999747378752e-05
1.9065209926338866e-05,1.0,0.5033149123191833,0.9362221956253052,9.999999747378752e-05
2.754417982941959e-05,1.0,0.502019464969635,0.9344444274902344,9.999999747378752e-05
1.614503526070621e-05,1.0,0.5020398497581482,0.933555543422699,9.999999747378752e-05
1.6635927750030532e-05,1.0,0.5026763677597046,0.9344444274902344,9.999999747378752e-05
1.3531950571632478e-05,1.0,0.5035991668701172,0.9351111054420471,9.999999747378752e-05
4.1557483200449497e-05,1.0,0.5026622414588928,0.9353333115577698,9.999999747378752e-05
2.0094887076993473e-05,1.0,0.5022021532058716,0.9359999895095825,9.999999747378752e-05
7.661084964638576e-05,1.0,0.5061683058738708,0.9359999895095825,9.999999747378752e-05
2.0961962945875712e-05,1.0,0.5117132663726807,0.937333345413208,9.999999747378752e-05
2.3673266696278006e-05,1.0,0.5135158896446228,0.9375555515289307,9.999999747378752e-05
1.662841168581508e-05,1.0,0.5138658285140991,0.9377777576446533,9.999999747378752e-05
2.5654009732534178e-05,1.0,0.5125054717063904,0.9368888735771179,9.999999747378752e-05
1.4445461602008436e-05,1.0,0.5103133916854858,0.9364444613456726,9.999999747378752e-05
2.2193737095221877e-05,1.0,0.5095864534378052,0.9364444613456726,9.999999747378752e-05
2.4475642931065522e-05,1.0,0.5097466111183167,0.9362221956253052,9.999999747378752e-05
1.4535604350385256e-05,1.0,0.5098209381103516,0.9366666674613953,9.999999747378752e-05
2.0564626538543962e-05,1.0,0.5075175762176514,0.9355555772781372,9.999999747378752e-05
1.677627005847171e-05,1.0,0.5063944458961487,0.9353333115577698,9.999999747378752e-05
1.9753893866436556e-05,1.0,0.5057655572891235,0.9357777833938599,9.999999747378752e-05
2.456866241118405e-05,1.0,0.5054911375045776,0.9357777833938599,9.999999747378752e-05
1.416386839991901e-05,1.0,0.5062349438667297,0.9359999895095825,9.999999747378752e-05
1.8219283447251655e-05,1.0,0.5068125128746033,0.9362221956253052,9.999999747378752e-05
1.1499703759909607e-05,1.0,0.5067546963691711,0.9359999895095825,9.999999747378752e-05
1.5884870663285255e-05,1.0,0.5063186883926392,0.9362221956253052,9.999999747378752e-05
3.455064870649949e-05,1.0,0.5060374140739441,0.9362221956253052,9.999999747378752e-05
3.352760904817842e-05,1.0,0.5018406510353088,0.9359999895095825,9.999999747378752e-05
1.1983772310486529e-05,1.0,0.49980616569519043,0.9359999895095825,9.999999747378752e-05
1.3805658454657532e-05,1.0,0.4999689757823944,0.9359999895095825,9.999999747378752e-05
1.0152082722925115e-05,1.0,0.5005461573600769,0.9362221956253052,9.999999747378752e-05
1.9087410692009144e-05,1.0,0.5017530918121338,0.9355555772781372,9.999999747378752e-05
2.53123180300463e-05,1.0,0.5031283497810364,0.9359999895095825,9.999999747378752e-05
1.670534948061686e-05,1.0,0.5046689510345459,0.9375555515289307,9.999999747378752e-05
1.7518594177090563e-05,1.0,0.505678653717041,0.9375555515289307,9.999999747378752e-05
2.1931449737166986e-05,1.0,0.5065932869911194,0.9371111392974854,9.999999747378752e-05
3.125899092992768e-05,1.0,0.5042004585266113,0.9371111392974854,9.999999747378752e-05
1.4146205103315879e-05,1.0,0.5020492076873779,0.9368888735771179,9.999999747378752e-05
2.3574650185764767e-05,1.0,0.5013806819915771,0.9353333115577698,9.999999747378752e-05
2.570994183770381e-05,1.0,0.5026581883430481,0.9355555772781372,9.999999747378752e-05
1.2828392755181994e-05,1.0,0.5044316053390503,0.9355555772781372,9.999999747378752e-05
1.1649563020910136e-05,1.0,0.505220353603363,0.9357777833938599,9.999999747378752e-05
1.175013130705338e-05,1.0,0.5059415102005005,0.9362221956253052,9.999999747378752e-05
1.2941578461322933e-05,1.0,0.5066548585891724,0.9371111392974854,9.999999747378752e-05
1.4149661183182616e-05,1.0,0.5072103142738342,0.937333345413208,9.999999747378752e-05
1.8067139535560273e-05,1.0,0.5072286128997803,0.9371111392974854,9.999999747378752e-05
1.598265407665167e-05,1.0,0.5075207352638245,0.9371111392974854,9.999999747378752e-05
2.2923382857698016e-05,1.0,0.5080212950706482,0.9371111392974854,9.999999747378752e-05
1.2431135473889299e-05,1.0,0.5075755715370178,0.937333345413208,9.999999747378752e-05
1.4020947673998307e-05,1.0,0.5081380009651184,0.9375555515289307,9.999999747378752e-05
1.3718283298658207e-05,1.0,0.5083614587783813,0.937333345413208,9.999999747378752e-05
1.4471388567471877e-05,1.0,0.5087170004844666,0.9371111392974854,9.999999747378752e-05
1.507079377915943e-05,1.0,0.5089429020881653,0.9368888735771179,9.999999747378752e-05
2.6063758923555724e-05,1.0,0.5100089311599731,0.9371111392974854,9.999999747378752e-05
3.138918327749707e-05,1.0,0.5112190246582031,0.9371111392974854,9.999999747378752e-05
9.494243386143353e-06,1.0,0.5080270767211914,0.9342222213745117,9.999999747378752e-05
1.318509293923853e-05,1.0,0.5084065198898315,0.933555543422699,9.999999747378752e-05
1.5243822417687625e-05,1.0,0.5084776282310486,0.9342222213745117,9.999999747378752e-05
2.0553648937493563e-05,1.0,0.5091836452484131,0.9357777833938599,9.999999747378752e-05
1.921387047332246e-05,1.0,0.5094745755195618,0.9359999895095825,9.999999747378752e-05
1.9448378225206397e-05,1.0,0.5111162066459656,0.9371111392974854,9.999999747378752e-05
1.7226158888661303e-05,1.0,0.5110192894935608,0.9371111392974854,9.999999747378752e-05
1.331090425082948e-05,1.0,0.5100390911102295,0.9371111392974854,9.999999747378752e-05
1.2413092008500826e-05,1.0,0.5082481503486633,0.937333345413208,9.999999747378752e-05
2.000212225539144e-05,1.0,0.508587121963501,0.9371111392974854,9.999999747378752e-05
2.0841196601395495e-05,1.0,0.5099817514419556,0.9377777576446533,9.999999747378752e-05
1.231845817528665e-05,1.0,0.5107082724571228,0.9375555515289307,9.999999747378752e-05
1.1363938938302454e-05,1.0,0.5110780596733093,0.9375555515289307,9.999999747378752e-05
3.700128581840545e-05,1.0,0.5110896825790405,0.9353333115577698,9.999999747378752e-05
3.1734347430756316e-05,1.0,0.5071401596069336,0.933555543422699,9.999999747378752e-05
1.198308564198669e-05,1.0,0.5045204162597656,0.9331111311912537,9.999999747378752e-05
1.2604313269548584e-05,1.0,0.5040565729141235,0.9346666932106018,9.999999747378752e-05
1.1964010809606407e-05,1.0,0.5055456757545471,0.9359999895095825,9.999999747378752e-05
1.4795750757912174e-05,1.0,0.5072774887084961,0.9366666674613953,9.999999747378752e-05
2.751929969235789e-05,1.0,0.5085046887397766,0.9364444613456726,9.999999747378752e-05
2.0864366888417862e-05,1.0,0.5113115906715393,0.9368888735771179,9.999999747378752e-05
9.051629604073241e-06,1.0,0.5140329599380493,0.9375555515289307,9.999999747378752e-05
1.4598424058931414e-05,1.0,0.5129204392433167,0.9375555515289307,9.999999747378752e-05
3.223239036742598e-05,1.0,0.5123249888420105,0.937333345413208,9.999999747378752e-05
1.4859580915072002e-05,1.0,0.5129815340042114,0.9371111392974854,9.999999747378752e-05
1.1468495358712971e-05,1.0,0.5133845806121826,0.9375555515289307,9.999999747378752e-05
1.124025038734544e-05,1.0,0.5130908489227295,0.9371111392974854,9.999999747378752e-05
1.4437464415095747e-05,1.0,0.5124882459640503,0.9359999895095825,9.999999747378752e-05
3.017785638803616e-05,1.0,0.511297345161438,0.9340000152587891,9.999999747378752e-05
1.0579029549262486e-05,1.0,0.5117324590682983,0.9324444532394409,9.999999747378752e-05
1.085085477825487e-05,1.0,0.5117707252502441,0.9324444532394409,9.999999747378752e-05
1.6708723705960438e-05,1.0,0.5111313462257385,0.9344444274902344,9.999999747378752e-05
3.455933619989082e-05,1.0,0.508089005947113,0.9348888993263245,9.999999747378752e-05
1.0433678653498646e-05,1.0,0.5079073905944824,0.9348888993263245,9.999999747378752e-05
5.953258369117975e-05,1.0,0.5171244144439697,0.9233333468437195,9.999999747378752e-05
5.768336995970458e-05,1.0,0.523553729057312,0.9204444289207458,9.999999747378752e-05
1.878619696071837e-05,1.0,0.49863705039024353,0.9342222213745117,9.999999747378752e-05
1.6081539797596633e-05,1.0,0.5026776194572449,0.9366666674613953,9.999999747378752e-05
1.0987873793055769e-05,1.0,0.5072178840637207,0.9384444355964661,9.999999747378752e-05
2.631520874274429e-05,1.0,0.5095096826553345,0.9364444613456726,9.999999747378752e-05
2.05532578547718e-05,1.0,0.5117390155792236,0.9353333115577698,9.999999747378752e-05
1.289843930862844e-05,1.0,0.5128047466278076,0.9353333115577698,9.999999747378752e-05
1.4099298823566642e-05,1.0,0.5137765407562256,0.9357777833938599,9.999999747378752e-05
1.2346308722044341e-05,1.0,0.5142867565155029,0.9366666674613953,9.999999747378752e-05
1.0883795766858384e-05,1.0,0.5154510736465454,0.9364444613456726,9.999999747378752e-05
1.1298066965537146e-05,1.0,0.5162916779518127,0.9362221956253052,9.999999747378752e-05
1.4891666978655849e-05,1.0,0.5166805386543274,0.9362221956253052,9.999999747378752e-05
1.2831285857828334e-05,1.0,0.5171269178390503,0.9366666674613953,9.999999747378752e-05
8.633857760287356e-06,1.0,0.5179775357246399,0.9366666674613953,9.999999747378752e-05
2.1632957214023918e-05,1.0,0.5194402933120728,0.937333345413208,9.999999747378752e-05
1.99571113626007e-05,1.0,0.5199667811393738,0.9368888735771179,9.999999747378752e-05
1.0857608685910236e-05,1.0,0.5202022790908813,0.9366666674613953,9.999999747378752e-05
1.2807560779037885e-05,1.0,0.5202939510345459,0.9368888735771179,9.999999747378752e-05
1.0610977369651664e-05,1.0,0.5205625295639038,0.9368888735771179,9.999999747378752e-05
1.6681717170285992e-05,1.0,0.5205466747283936,0.9366666674613953,9.999999747378752e-05
1.9669008906930685e-05,1.0,0.5211653113365173,0.9368888735771179,9.999999747378752e-05
8.274142601294443e-06,1.0,0.5217846035957336,0.9368888735771179,9.999999747378752e-05
1.3222057532402687e-05,1.0,0.521375298500061,0.9371111392974854,9.999999747378752e-05
1.4366246432473417e-05,1.0,0.5218069553375244,0.9371111392974854,9.999999747378752e-05
1.1552180694707204e-05,1.0,0.5220518708229065,0.9366666674613953,9.999999747378752e-05
9.215782483806834e-06,1.0,0.522220253944397,0.9368888735771179,9.999999747378752e-05
1.0825362551258877e-05,1.0,0.5221936702728271,0.9366666674613953,9.999999747378752e-05
9.439226232643705e-06,1.0,0.522142767906189,0.9366666674613953,9.999999747378752e-05
1.1569241905817762e-05,1.0,0.521527111530304,0.9359999895095825,9.999999747378752e-05
1.2028400306007825e-05,1.0,0.5209750533103943,0.9357777833938599,9.999999747378752e-05
9.425159987586085e-06,1.0,0.5206506848335266,0.9359999895095825,9.999999747378752e-05
1.0631790246407036e-05,1.0,0.5197963714599609,0.9359999895095825,9.999999747378752e-05
1.0773837857414037e-05,1.0,0.5194016098976135,0.9362221956253052,9.999999747378752e-05
1.4387192095455248e-05,1.0,0.5194215774536133,0.9357777833938599,9.999999747378752e-05
2.4612751076347195e-05,1.0,0.5198990106582642,0.9351111054420471,9.999999747378752e-05
1.5313857147702947e-05,1.0,0.5178836584091187,0.9353333115577698,9.999999747378752e-05
1.5163705029408447e-05,1.0,0.5178965330123901,0.9357777833938599,9.999999747378752e-05
1.4081475455895998e-05,1.0,0.5188114047050476,0.9346666932106018,9.999999747378752e-05
6.905650479893666e-06,1.0,0.5189427137374878,0.9348888993263245,9.999999747378752e-05
1.153015091404086e-05,1.0,0.5191449522972107,0.9355555772781372,9.999999747378752e-05
1.1671672837110236e-05,1.0,0.519955039024353,0.9357777833938599,9.999999747378752e-05
1.178025922854431e-05,1.0,0.5198032259941101,0.9353333115577698,9.999999747378752e-05
1.232483464264078e-05,1.0,0.5202605128288269,0.9357777833938599,9.999999747378752e-05
1.007330502034165e-05,1.0,0.5207220911979675,0.9364444613456726,9.999999747378752e-05
9.565248547005467e-06,1.0,0.5210607647895813,0.9368888735771179,9.999999747378752e-05
1.1545438610482961e-05,1.0,0.5221543908119202,0.9375555515289307,9.999999747378752e-05
2.1825748262926936e-05,1.0,0.5237777233123779,0.9371111392974854,9.999999747378752e-05
1.1085013284173328e-05,1.0,0.5251219272613525,0.9368888735771179,9.999999747378752e-05
1.1926355909963604e-05,1.0,0.5258365273475647,0.9368888735771179,9.999999747378752e-05
1.1422150237194728e-05,1.0,0.5269137024879456,0.9368888735771179,9.999999747378752e-05
2.8757240215782076e-05,1.0,0.5257011651992798,0.9364444613456726,9.999999747378752e-05
1.6068233890109695e-05,1.0,0.521713137626648,0.9371111392974854,9.999999747378752e-05
7.361479219980538e-06,1.0,0.5208956003189087,0.9371111392974854,9.999999747378752e-05
1.0743818165792618e-05,1.0,0.5210824608802795,0.9371111392974854,9.999999747378752e-05
1.0587205906631425e-05,1.0,0.5198113322257996,0.9359999895095825,9.999999747378752e-05
1.8705142792896368e-05,1.0,0.5190482139587402,0.9355555772781372,9.999999747378752e-05
1.1527143215062097e-05,1.0,0.518973171710968,0.9359999895095825,9.999999747378752e-05
4.709556742454879e-05,1.0,0.5244742035865784,0.9215555787086487,9.999999747378752e-05
3.070273305638693e-05,1.0,0.517015278339386,0.9215555787086487,9.999999747378752e-05
2.3985892767086625e-05,1.0,0.4973829686641693,0.933555543422699,9.999999747378752e-05
1.1443084986240137e-05,1.0,0.5036089420318604,0.9355555772781372,9.999999747378752e-05
1.3918985132477246e-05,1.0,0.5120630860328674,0.937333345413208,9.999999747378752e-05
1.3632228728965856e-05,1.0,0.5153539776802063,0.9375555515289307,9.999999747378752e-05
1.2875091670139227e-05,1.0,0.5166707634925842,0.9380000233650208,9.999999747378752e-05
1.0658528481144458e-05,1.0,0.5166282653808594,0.9380000233650208,9.999999747378752e-05
9.282266546506435e-06,1.0,0.5171759128570557,0.9368888735771179,9.999999747378752e-05
1.5781824913574383e-05,1.0,0.51878821849823,0.9364444613456726,9.999999747378752e-05
1.4504551472782623e-05,1.0,0.5185638070106506,0.9357777833938599,9.999999747378752e-05
1.811843139876146e-05,1.0,0.519217848777771,0.9355555772781372,9.999999747378752e-05
7.584527338622138e-06,1.0,0.5198349356651306,0.9364444613456726,9.999999747378752e-05
1.1875318705278914e-05,1.0,0.5200336575508118,0.9362221956253052,9.999999747378752e-05
1.2240298019605689e-05,1.0,0.5207926630973816,0.9364444613456726,9.999999747378752e-05
7.885586455813609e-06,1.0,0.5208924412727356,0.9362221956253052,9.999999747378752e-05
9.687484634923749e-06,1.0,0.5219308137893677,0.9353333115577698,9.999999747378752e-05
1.9788536519627087e-05,1.0,0.5228745937347412,0.9355555772781372,9.999999747378752e-05
1.8810227629728615e-05,1.0,0.5223743319511414,0.9364444613456726,9.999999747378752e-05
1.4090778677200433e-05,1.0,0.5228126645088196,0.9364444613456726,9.999999747378752e-05
6.87969031787361e-06,1.0,0.5232049226760864,0.9364444613456726,9.999999747378752e-05
1.1050560715375468e-05,1.0,0.5243075489997864,0.9366666674613953,9.999999747378752e-05
1.3112786291458178e-05,1.0,0.5240969061851501,0.9362221956253052,9.999999747378752e-05
7.598237061756663e-06,1.0,0.5238912105560303,0.9366666674613953,9.999999747378752e-05
1.1701096809701994e-05,1.0,0.5244928002357483,0.9371111392974854,9.999999747378752e-05
3.292659675935283e-05,1.0,0.525576651096344,0.9353333115577698,9.999999747378752e-05
1.5197189895843621e-05,1.0,0.5286086201667786,0.9355555772781372,9.999999747378752e-05
1.0223841854895e-05,1.0,0.5280846953392029,0.9359999895095825,9.999999747378752e-05
7.552688657597173e-06,1.0,0.5290820002555847,0.9366666674613953,9.999999747378752e-05
1.1053438356611878e-05,1.0,0.5281217694282532,0.9362221956253052,9.999999747378752e-05
1.5137790796870831e-05,1.0,0.5281258225440979,0.9362221956253052,9.999999747378752e-05
2.5599501896067522e-05,1.0,0.5292695760726929,0.9357777833938599,9.999999747378752e-05
1.9622053514467552e-05,1.0,0.5323843359947205,0.9371111392974854,9.999999747378752e-05
1.800072641344741e-05,1.0,0.5338484644889832,0.937333345413208,9.999999747378752e-05
1.990295095311012e-05,1.0,0.5348749160766602,0.9377777576446533,9.999999747378752e-05
1.0563646355876699e-05,1.0,0.5355145931243896,0.9380000233650208,9.999999747378752e-05
2.0393545128172264e-05,1.0,0.5334287285804749,0.9351111054420471,9.999999747378752e-05
1.2895878171548247e-05,1.0,0.5388544201850891,0.9300000071525574,9.999999747378752e-05
1.729539508232847e-05,1.0,0.5336480736732483,0.9344444274902344,9.999999747378752e-05
1.4072702470002696e-05,1.0,0.5309131145477295,0.9359999895095825,9.999999747378752e-05
1.0245385965390597e-05,1.0,0.530470073223114,0.9375555515289307,9.999999747378752e-05
9.200914973916952e-06,1.0,0.5308932065963745,0.9377777576446533,9.999999747378752e-05
1.029492705129087e-05,1.0,0.5313242673873901,0.9380000233650208,9.999999747378752e-05
9.783031600818504e-06,1.0,0.5310651659965515,0.9377777576446533,9.999999747378752e-05
9.320066965301521e-06,1.0,0.5270557999610901,0.9371111392974854,9.999999747378752e-05
8.250257451436482e-06,1.0,0.5265842080116272,0.9371111392974854,9.999999747378752e-05
5.877144758414943e-06,1.0,0.5269617438316345,0.9368888735771179,9.999999747378752e-05
1.625845834496431e-05,1.0,0.5230411291122437,0.9351111054420471,9.999999747378752e-05
8.352573786396533e-06,1.0,0.521639883518219,0.9337777495384216,9.999999747378752e-05
7.902338438725565e-06,1.0,0.5220605134963989,0.9333333373069763,9.999999747378752e-05
8.849299774738029e-06,1.0,0.522345781326294,0.9342222213745117,9.999999747378752e-05
8.856168278725818e-06,1.0,0.5226573348045349,0.9353333115577698,9.999999747378752e-05
6.576901341759367e-06,1.0,0.523594319820404,0.9364444613456726,9.999999747378752e-05
2.487022902641911e-05,1.0,0.5252441167831421,0.9362221956253052,9.999999747378752e-05
1.314100154559128e-05,1.0,0.5286543965339661,0.9368888735771179,9.999999747378752e-05
1.184265420306474e-05,1.0,0.5290262699127197,0.9371111392974854,9.999999747378752e-05
1.3323111488716677e-05,1.0,0.5320806503295898,0.9384444355964661,9.999999747378752e-05
1.52603788592387e-05,1.0,0.5308963656425476,0.937333345413208,9.999999747378752e-05
1.2880962458439171e-05,1.0,0.5334094762802124,0.9371111392974854,9.999999747378752e-05
1.2586422599270009e-05,1.0,0.5293254852294922,0.937333345413208,9.999999747378752e-05
1.3065637176623568e-05,1.0,0.5262996554374695,0.9371111392974854,9.999999747378752e-05
7.172904133767588e-06,1.0,0.5234994292259216,0.9366666674613953,9.999999747378752e-05
9.418782610737253e-06,1.0,0.5208737850189209,0.9366666674613953,9.999999747378752e-05
7.2799484769348055e-06,1.0,0.5210832953453064,0.937333345413208,9.999999747378752e-05
5.950601462245686e-06,1.0,0.5234189629554749,0.9375555515289307,9.999999747378752e-05
1.4372303667187225e-05,1.0,0.5253359079360962,0.9371111392974854,9.999999747378752e-05
5.068224254500819e-06,1.0,0.5276626348495483,0.9382222294807434,9.999999747378752e-05
8.041472028708085e-06,1.0,0.530138373374939,0.9377777576446533,9.999999747378752e-05
6.136504453024827e-06,1.0,0.5306499004364014,0.937333345413208,9.999999747378752e-05
1.089589022740256e-05,1.0,0.5315831899642944,0.9377777576446533,9.999999747378752e-05
6.484300683951005e-06,1.0,0.5316709280014038,0.9377777576446533,9.999999747378752e-05
5.427491487353109e-06,1.0,0.5318875908851624,0.9377777576446533,9.999999747378752e-05
6.128935638116673e-06,1.0,0.533167839050293,0.9375555515289307,9.999999747378752e-05
7.792483302182518e-06,1.0,0.534541666507721,0.9375555515289307,9.999999747378752e-05
1.0246314559481107e-05,1.0,0.535813570022583,0.9351111054420471,9.999999747378752e-05
1.3728556950809434e-05,1.0,0.5396162271499634,0.9348888993263245,9.999999747378752e-05
7.700216883677058e-06,1.0,0.5358178615570068,0.9353333115577698,9.999999747378752e-05
5.675698048435152e-06,1.0,0.5351365804672241,0.9362221956253052,9.999999747378752e-05
9.158106877293903e-06,1.0,0.5359276533126831,0.9366666674613953,9.999999747378752e-05
5.6525595937273465e-06,1.0,0.5360035300254822,0.9366666674613953,9.999999747378752e-05
3.98751853936119e-06,1.0,0.5362493991851807,0.9371111392974854,9.999999747378752e-05
7.732204721833114e-06,1.0,0.5364363789558411,0.9371111392974854,9.999999747378752e-05
7.284775620064465e-06,1.0,0.5353779196739197,0.9366666674613953,9.999999747378752e-05
8.93684773473069e-06,1.0,0.5346404314041138,0.9368888735771179,9.999999747378752e-05
4.2557167034829035e-06,1.0,0.5350920557975769,0.9368888735771179,9.999999747378752e-05
7.640841431566514e-06,1.0,0.536537766456604,0.9371111392974854,9.999999747378752e-05
6.5858548623509705e-06,1.0,0.5362828373908997,0.9366666674613953,9.999999747378752e-05
8.282516319013666e-06,1.0,0.5355957746505737,0.9362221956253052,9.999999747378752e-05
1.2148609130235855e-05,1.0,0.5363693833351135,0.9351111054420471,9.999999747378752e-05
1.382812115480192e-05,1.0,0.5369133949279785,0.9353333115577698,9.999999747378752e-05
5.203402906772681e-06,1.0,0.5364999175071716,0.9353333115577698,9.999999747378752e-05
6.553993443958461e-06,1.0,0.5377901792526245,0.9364444613456726,9.999999747378752e-05
8.273926141555421e-06,1.0,0.5369822382926941,0.9371111392974854,9.999999747378752e-05
9.441237125429325e-06,1.0,0.5357963442802429,0.9375555515289307,9.999999747378752e-05
1.219646401295904e-05,1.0,0.5301186442375183,0.9359999895095825,9.999999747378752e-05
6.705124178552069e-06,1.0,0.5273215770721436,0.9357777833938599,9.999999747378752e-05
5.787047939520562e-06,1.0,0.5279805660247803,0.9362221956253052,9.999999747378752e-05
1.097961012419546e-05,1.0,0.5286913514137268,0.9364444613456726,9.999999747378752e-05
8.307845746458042e-06,1.0,0.5267944931983948,0.9357777833938599,9.999999747378752e-05
9.814041732170153e-06,1.0,0.5255921483039856,0.9353333115577698,9.999999747378752e-05
8.4978355516796e-06,1.0,0.5248573422431946,0.9351111054420471,9.999999747378752e-05
7.611703495058464e-06,1.0,0.5263880491256714,0.9351111054420471,9.999999747378752e-05
6.261683211050695e-06,1.0,0.528278648853302,0.9355555772781372,9.999999747378752e-05
7.530438779213e-06,1.0,0.529873788356781,0.9371111392974854,9.999999747378752e-05
5.27585234522121e-06,1.0,0.5320162773132324,0.9371111392974854,9.999999747378752e-05
6.4359228417743e-06,1.0,0.5332546830177307,0.9377777576446533,9.999999747378752e-05
6.300514996837592e-06,1.0,0.5338115096092224,0.9377777576446533,9.999999747378752e-05
6.666174613201292e-06,1.0,0.5316055417060852,0.937333345413208,9.999999747378752e-05
5.667857749358518e-06,1.0,0.5324119925498962,0.937333345413208,9.999999747378752e-05
7.313483820325928e-06,1.0,0.534028172492981,0.9375555515289307,9.999999747378752e-05
5.036288257542765e-06,1.0,0.5350409746170044,0.9377777576446533,9.999999747378752e-05
6.413058599719079e-06,1.0,0.5355947017669678,0.9375555515289307,9.999999747378752e-05
5.230979240877787e-06,1.0,0.5365375280380249,0.9375555515289307,9.999999747378752e-05
7.146140433178516e-06,1.0,0.5341433882713318,0.9359999895095825,9.999999747378752e-05
4.198748683847953e-06,1.0,0.5340747237205505,0.9357777833938599,9.999999747378752e-05
6.882586603751406e-06,1.0,0.5352769494056702,0.9366666674613953,9.999999747378752e-05
3.4835074984584935e-06,1.0,0.5369447469711304,0.9375555515289307,9.999999747378752e-05
5.397714176069712e-06,1.0,0.5383540987968445,0.9382222294807434,9.999999747378752e-05
5.803317890240578e-06,1.0,0.5386052131652832,0.9382222294807434,9.999999747378752e-05
4.1737080209713895e-06,1.0,0.5377292633056641,0.9382222294807434,9.999999747378752e-05
8.674332093505654e-06,1.0,0.538105309009552,0.9377777576446533,9.999999747378752e-05
5.456321559904609e-06,1.0,0.5382693409919739,0.9377777576446533,9.999999747378752e-05
6.930128620297182e-06,1.0,0.537218451499939,0.9368888735771179,9.999999747378752e-05
6.121040769357933e-06,1.0,0.5365641713142395,0.9359999895095825,9.999999747378752e-05
7.411626938846894e-06,1.0,0.5375843048095703,0.9368888735771179,9.999999747378752e-05
6.51598520562402e-06,1.0,0.5367144346237183,0.9371111392974854,9.999999747378752e-05
8.87133319338318e-06,1.0,0.5363105535507202,0.9362221956253052,9.999999747378752e-05
3.965817086282186e-06,1.0,0.5361347198486328,0.9359999895095825,9.999999747378752e-05
1.1238073057029396e-05,1.0,0.5379401445388794,0.9368888735771179,9.999999747378752e-05
1.0687258509278763e-05,1.0,0.539248526096344,0.9371111392974854,9.999999747378752e-05
6.090752776799491e-06,1.0,0.5398156046867371,0.9380000233650208,9.999999747378752e-05
4.836185325984843e-06,1.0,0.5411785244941711,0.9382222294807434,9.999999747378752e-05
4.164881829638034e-06,1.0,0.5424087643623352,0.9380000233650208,9.999999747378752e-05
1.251730827789288e-05,1.0,0.5380203723907471,0.9344444274902344,9.999999747378752e-05
1.0802732504089363e-05,1.0,0.5476375222206116,0.9266666769981384,9.999999747378752e-05
8.802571755950339e-06,1.0,0.5372205376625061,0.9308888912200928,9.999999747378752e-05
6.72694750392111e-06,1.0,0.5357070565223694,0.9353333115577698,9.999999747378752e-05
4.7888129302009474e-06,1.0,0.5386530160903931,0.937333345413208,9.999999747378752e-05
5.99720351601718e-06,1.0,0.5404645204544067,0.9377777576446533,9.999999747378752e-05
6.565389867319027e-06,1.0,0.5398117899894714,0.9375555515289307,9.999999747378752e-05
3.843981176032685e-06,1.0,0.5406425595283508,0.9375555515289307,9.999999747378752e-05
5.422739832283696e-06,1.0,0.5420454144477844,0.9371111392974854,9.999999747378752e-05
9.080516974790953e-06,1.0,0.5426446795463562,0.937333345413208,9.999999747378752e-05
3.892619588441448e-06,1.0,0.5436922311782837,0.9371111392974854,9.999999747378752e-05
5.113520728627918e-06,1.0,0.5445131659507751,0.937333345413208,9.999999747378752e-05
5.46799765288597e-06,1.0,0.5446534156799316,0.937333345413208,9.999999747378752e-05
3.6777705645363312e-06,1.0,0.5442638993263245,0.9377777576446533,9.999999747378752e-05
4.722523499367526e-06,1.0,0.5446313619613647,0.9380000233650208,9.999999747378752e-05
1.4164884305500891e-05,1.0,0.5408613681793213,0.9340000152587891,9.999999747378752e-05
4.840304427489173e-06,1.0,0.5404646396636963,0.9331111311912537,9.999999747378752e-05
5.0818175623135176e-06,1.0,0.5398232936859131,0.9340000152587891,9.999999747378752e-05
1.7808990378398448e-05,1.0,0.5348156690597534,0.929111123085022,9.999999747378752e-05
6.648521775787231e-06,1.0,0.5292202234268188,0.9317777752876282,9.999999747378752e-05
9.264569598599337e-06,1.0,0.5310755968093872,0.9366666674613953,9.999999747378752e-05
5.328671250026673e-06,1.0,0.5338594913482666,0.9362221956253052,9.999999747378752e-05
6.111454240453895e-06,1.0,0.5339347124099731,0.937333345413208,9.999999747378752e-05
7.2779980655468535e-06,1.0,0.5366561412811279,0.937333345413208,9.999999747378752e-05
4.7904027269396465e-06,1.0,0.5394591093063354,0.9371111392974854,9.999999747378752e-05
4.70487884740578e-06,1.0,0.5412628650665283,0.9359999895095825,9.999999747378752e-05
4.588788215187378e-06,1.0,0.5429805517196655,0.9362221956253052,9.999999747378752e-05
5.19835975865135e-06,1.0,0.5437894463539124,0.9362221956253052,9.999999747378752e-05
7.789158189552836e-06,1.0,0.5462174415588379,0.9364444613456726,9.999999747378752e-05
8.167760825017467e-06,1.0,0.5497362017631531,0.9371111392974854,9.999999747378752e-05
5.344936198525829e-06,1.0,0.5523514747619629,0.937333345413208,9.999999747378752e-05
3.802695346166729e-06,1.0,0.5502617955207825,0.9366666674613953,9.999999747378752e-05
4.893617642665049e-06,1.0,0.5488028526306152,0.9368888735771179,9.999999747378752e-05
5.5109076129156165e-06,1.0,0.5459272265434265,0.9368888735771179,9.999999747378752e-05
5.396178039518418e-06,1.0,0.54171222448349,0.9355555772781372,9.999999747378752e-05
1.538069045636803e-05,1.0,0.541111409664154,0.9355555772781372,9.999999747378752e-05
1.403778060193872e-05,1.0,0.5501230359077454,0.9331111311912537,9.999999747378752e-05
5.8580321820045356e-06,1.0,0.5536489486694336,0.9319999814033508,9.999999747378752e-05
2.7435611627879553e-05,1.0,0.5318695306777954,0.9395555257797241,9.999999747378752e-05
3.935496806661831e-06,1.0,0.5239006876945496,0.9397777915000916,9.999999747378752e-05
1.0613988706609234e-05,1.0,0.5257645845413208,0.9368888735771179,9.999999747378752e-05
5.984896233712789e-06,1.0,0.5383712649345398,0.9313333630561829,9.999999747378752e-05
7.210167041193927e-06,1.0,0.5362704396247864,0.9368888735771179,9.999999747378752e-05
6.4638729782018345e-06,1.0,0.5423296093940735,0.940666675567627,9.999999747378752e-05
4.095018084626645e-06,1.0,0.5475345849990845,0.9408888816833496,9.999999747378752e-05
6.129298071755329e-06,1.0,0.5478709936141968,0.9411110877990723,9.999999747378752e-05
3.837278654827969e-06,1.0,0.5465195775032043,0.9413333535194397,9.999999747378752e-05
1.004708155960543e-05,1.0,0.5428240895271301,0.9395555257797241,9.999999747378752e-05
5.23003200214589e-06,1.0,0.5413525104522705,0.9380000233650208,9.999999747378752e-05
2.8290567115618614e-06,1.0,0.5415522456169128,0.9380000233650208,9.999999747378752e-05
5.016975137550617e-06,1.0,0.5439684391021729,0.9384444355964661,9.999999747378752e-05
8.847924618748948e-06,1.0,0.5447490215301514,0.9388889074325562,9.999999747378752e-05
5.4847928367962595e-06,1.0,0.5440568327903748,0.9391111135482788,9.999999747378752e-05
6.241908522497397e-06,1.0,0.5412319302558899,0.9393333196640015,9.999999747378752e-05
6.959729034861084e-06,1.0,0.5425627827644348,0.9388889074325562,9.999999747378752e-05
4.316508238844108e-06,1.0,0.5449967384338379,0.9380000233650208,9.999999747378752e-05
4.288548097974854e-06,1.0,0.5456258654594421,0.9377777576446533,9.999999747378752e-05
7.037629075057339e-06,1.0,0.5447119474411011,0.937333345413208,9.999999747378752e-05
5.154901373316534e-06,1.0,0.5444118976593018,0.9375555515289307,9.999999747378752e-05
4.550609901343705e-06,1.0,0.5425185561180115,0.9375555515289307,9.999999747378752e-05
4.233669642417226e-06,1.0,0.5389583110809326,0.9377777576446533,9.999999747378752e-05
1.3209614735387731e-05,1.0,0.5387753844261169,0.9359999895095825,9.999999747378752e-05
5.364295702747768e-06,1.0,0.5529154539108276,0.9262222051620483,9.999999747378752e-05
6.411824415408773e-06,1.0,0.5497457385063171,0.9297778010368347,9.999999747378752e-05
6.742046934959944e-06,1.0,0.5512790083885193,0.9353333115577698,9.999999747378752e-05
5.402085207606433e-06,1.0,0.5529751181602478,0.9368888735771179,9.999999747378752e-05
2.641659193614032e-06,1.0,0.5538090467453003,0.937333345413208,9.999999747378752e-05
4.344646185927559e-06,1.0,0.5537839531898499,0.9375555515289307,9.999999747378752e-05
4.529782472673105e-06,1.0,0.5548475980758667,0.9371111392974854,9.999999747378752e-05
3.312752369311056e-06,1.0,0.5528711080551147,0.9371111392974854,9.999999747378752e-05
3.241747890569968e-06,1.0,0.553166389465332,0.9371111392974854,9.999999747378752e-05
7.105412350938423e-06,1.0,0.5554094910621643,0.9375555515289307,9.999999747378752e-05
5.871653684152989e-06,1.0,0.5564224720001221,0.9380000233650208,9.999999747378752e-05
5.117507953400491e-06,1.0,0.5564233660697937,0.9384444355964661,9.999999747378752e-05
4.50316065325751e-06,1.0,0.5572851896286011,0.9384444355964661,9.999999747378752e-05
2.8402423595252912e-06,1.0,0.556886613368988,0.937333345413208,9.999999747378752e-05
1.9950764453824377e-06,1.0,0.5561691522598267,0.9371111392974854,9.999999747378752e-05
2.6395084660180146e-06,1.0,0.5549349784851074,0.937333345413208,9.999999747378752e-05
4.03729927711538e-06,1.0,0.5539901256561279,0.9371111392974854,9.999999747378752e-05
3.0483599857689114e-06,1.0,0.554517388343811,0.9371111392974854,9.999999747378752e-05
4.649350103136385e-06,1.0,0.5515097379684448,0.9371111392974854,9.999999747378752e-05
3.8630432754871435e-06,1.0,0.5491045117378235,0.9359999895095825,9.999999747378752e-05
7.644352081115358e-06,1.0,0.5522760152816772,0.9368888735771179,9.999999747378752e-05
2.886731863327441e-06,1.0,0.5539665222167969,0.9368888735771179,9.999999747378752e-05
4.312910277803894e-06,1.0,0.5561073422431946,0.9375555515289307,9.999999747378752e-05
2.067314426312805e-06,1.0,0.5559543371200562,0.937333345413208,9.999999747378752e-05
1.2084529771527741e-05,1.0,0.5521430373191833,0.9368888735771179,9.999999747378752e-05
4.305715719965519e-06,1.0,0.5425188541412354,0.9355555772781372,9.999999747378752e-05
5.021669494453818e-06,1.0,0.5420130491256714,0.9362221956253052,9.999999747378752e-05
3.214566959286458e-06,1.0,0.5462318658828735,0.9371111392974854,9.999999747378752e-05
9.755422979651485e-06,1.0,0.5528888702392578,0.9384444355964661,9.999999747378752e-05
7.63399566494627e-06,1.0,0.5484773516654968,0.9382222294807434,9.999999747378752e-05
6.361543455568608e-06,1.0,0.544735312461853,0.9348888993263245,9.999999747378752e-05
4.824658844881924e-06,1.0,0.5445135235786438,0.9359999895095825,9.999999747378752e-05
5.201718522584997e-06,1.0,0.5467975735664368,0.9377777576446533,9.999999747378752e-05
3.855412614939269e-06,1.0,0.5510558485984802,0.9382222294807434,9.999999747378752e-05
3.7356699067458976e-06,1.0,0.5530980825424194,0.9375555515289307,9.999999747378752e-05
3.031454070878681e-06,1.0,0.5533314347267151,0.9368888735771179,9.999999747378752e-05
7.440492936439114e-06,1.0,0.5552987456321716,0.9346666932106018,9.999999747378752e-05
4.357674242783105e-06,1.0,0.5561830401420593,0.9346666932106018,9.999999747378752e-05
3.473247488727793e-06,1.0,0.5551722645759583,0.9346666932106018,9.999999747378752e-05
2.9830712264811154e-06,1.0,0.5563290119171143,0.9355555772781372,9.999999747378752e-05
2.3410111680277623e-06,1.0,0.5586116909980774,0.9364444613456726,9.999999747378752e-05
2.4125404252117733e-06,1.0,0.5595195889472961,0.9368888735771179,9.999999747378752e-05
6.304505859588971e-06,1.0,0.5614355206489563,0.937333345413208,9.999999747378752e-05
2.2411070403904887e-06,1.0,0.5605405569076538,0.9377777576446533,9.999999747378752e-05
3.7394490846054396e-06,1.0,0.5592665672302246,0.9384444355964661,9.999999747378752e-05
3.5916864362661727e-06,1.0,0.5571249723434448,0.937333345413208,9.999999747378752e-05
2.6557029286777833e-06,1.0,0.5562750101089478,0.937333345413208,9.999999747378752e-05
7.662557436560746e-06,1.0,0.5574898719787598,0.9375555515289307,9.999999747378752e-05
1.1518559404066764e-05,1.0,0.5597372055053711,0.9377777576446533,9.999999747378752e-05
2.0954428237018874e-06,1.0,0.5618973970413208,0.9375555515289307,9.999999747378752e-05
3.1127592592383735e-06,1.0,0.5632436275482178,0.937333345413208,9.999999747378752e-05
2.0269883407308953e-06,1.0,0.5644261240959167,0.9371111392974854,9.999999747378752e-05
3.875181846524356e-06,1.0,0.5632369518280029,0.9371111392974854,9.999999747378752e-05
3.1828130886424333e-06,1.0,0.5622771978378296,0.9366666674613953,9.999999747378752e-05
2.2344240733218612e-06,1.0,0.560577929019928,0.9368888735771179,9.999999747378752e-05
2.310262971150223e-06,1.0,0.5600993633270264,0.9368888735771179,9.999999747378752e-05
5.177824277780019e-06,1.0,0.561302900314331,0.937333345413208,9.999999747378752e-05
2.594684701762162e-06,1.0,0.5608729720115662,0.9380000233650208,9.999999747378752e-05
1.0913956430158578e-05,1.0,0.5451642870903015,0.9342222213745117,9.999999747378752e-05
4.15295289712958e-06,1.0,0.5402462482452393,0.9308888912200928,9.999999747378752e-05
6.853773356851889e-06,1.0,0.5398939251899719,0.9359999895095825,9.999999747378752e-05
5.337378297554096e-06,1.0,0.5497527122497559,0.9386666417121887,9.999999747378752e-05
6.424439925467595e-05,1.0,0.5449239611625671,0.933555543422699,9.999999747378752e-05
5.087424142402597e-05,1.0,0.6200103759765625,0.9344444274902344,9.999999747378752e-05
5.4448344599222764e-05,1.0,0.5219614505767822,0.9353333115577698,9.999999747378752e-05
0.00028966605896130204,1.0,0.6605734825134277,0.9380000233650208,9.999999747378752e-05
0.010276373475790024,0.9980000257492065,1.5954968929290771,0.8086666464805603,9.999999747378752e-05
0.03816916048526764,0.9879999756813049,12.598869323730469,0.35644444823265076,9.999999747378752e-05
0.015191467478871346,0.9919999837875366,12.950971603393555,0.3535555601119995,9.999999747378752e-05
0.015931440517306328,0.9959999918937683,5.13966703414917,0.3902222216129303,9.999999747378752e-05
0.005178047809749842,0.9980000257492065,1.8373196125030518,0.6897777915000916,9.999999747378752e-05
0.0009139502653852105,1.0,0.9321094751358032,0.9206666946411133,9.999999747378752e-05
0.0012186788953840733,1.0,0.7583856582641602,0.9359999895095825,9.999999747378752e-05
0.0005613539251498878,1.0,0.6809762120246887,0.9393333196640015,9.999999747378752e-05
0.0009215655154548585,1.0,0.6543620228767395,0.9413333535194397,9.999999747378752e-05
0.00040871722740121186,1.0,0.6334742903709412,0.9422222375869751,9.999999747378752e-05
0.00026904919650405645,1.0,0.6138743758201599,0.9422222375869751,9.999999747378752e-05
0.0002671490947250277,1.0,0.5961378216743469,0.9413333535194397,9.999999747378752e-05
0.0003583627403713763,1.0,0.5798335671424866,0.9411110877990723,9.999999747378752e-05
0.0002644870546646416,1.0,0.5665570497512817,0.9399999976158142,9.999999747378752e-05
0.00028321988065727055,1.0,0.5558088421821594,0.9395555257797241,9.999999747378752e-05
0.00024240346101578325,1.0,0.5493850111961365,0.9391111135482788,9.999999747378752e-05
0.00020006530394311994,1.0,0.5432095527648926,0.9391111135482788,9.999999747378752e-05
0.0001537681237095967,1.0,0.5366997718811035,0.9391111135482788,9.999999747378752e-05
0.0003950423269998282,1.0,0.524563729763031,0.9375555515289307,9.999999747378752e-05
0.0002954092633444816,1.0,0.5184633135795593,0.937333345413208,9.999999747378752e-05
0.00034149258863180876,1.0,0.5157710909843445,0.9371111392974854,9.999999747378752e-05
0.00015762451221235096,1.0,0.514520525932312,0.937333345413208,9.999999747378752e-05
0.00014045275747776031,1.0,0.5128468871116638,0.9371111392974854,9.999999747378752e-05
0.00031179774668999016,1.0,0.5098849534988403,0.9366666674613953,9.999999747378752e-05
0.00024812595802359283,1.0,0.5091501474380493,0.9364444613456726,9.999999747378752e-05
9.62959456956014e-05,1.0,0.5086050629615784,0.9359999895095825,9.999999747378752e-05
8.641260501462966e-05,1.0,0.5076481103897095,0.9353333115577698,9.999999747378752e-05
0.00016399413289036602,1.0,0.5071783661842346,0.9353333115577698,9.999999747378752e-05
0.00010857293818844482,1.0,0.5063419938087463,0.9357777833938599,9.999999747378752e-05
8.372966840397567e-05,1.0,0.5060907602310181,0.9355555772781372,9.999999747378752e-05
0.0001458753104088828,1.0,0.50569087266922,0.9355555772781372,9.999999747378752e-05
9.80576005531475e-05,1.0,0.5062163472175598,0.9355555772781372,9.999999747378752e-05
8.398073259741068e-05,1.0,0.5062686800956726,0.9357777833938599,9.999999747378752e-05
7.71503837313503e-05,1.0,0.5065269470214844,0.9357777833938599,9.999999747378752e-05
0.0001385347277391702,1.0,0.5061742067337036,0.9351111054420471,9.999999747378752e-05
0.00015583859931211919,1.0,0.5066574215888977,0.9348888993263245,9.999999747378752e-05
8.50734650157392e-05,1.0,0.5068241953849792,0.9348888993263245,9.999999747378752e-05
9.421963477507234e-05,1.0,0.5069946646690369,0.9351111054420471,9.999999747378752e-05
9.010604117065668e-05,1.0,0.5066710114479065,0.9351111054420471,9.999999747378752e-05
8.440428791800514e-05,1.0,0.5057352781295776,0.9353333115577698,9.999999747378752e-05
0.00010964513057842851,1.0,0.505698561668396,0.9353333115577698,9.999999747378752e-05
6.159915210446343e-05,1.0,0.5057563781738281,0.9353333115577698,9.999999747378752e-05
8.236168650910258e-05,1.0,0.5057558417320251,0.9353333115577698,9.999999747378752e-05
0.0001528054563095793,1.0,0.5049183964729309,0.9351111054420471,9.999999747378752e-05
7.639998511876911e-05,1.0,0.5044034123420715,0.9351111054420471,9.999999747378752e-05
8.846208220347762e-05,1.0,0.504891574382782,0.9353333115577698,9.999999747378752e-05
7.081325748004019e-05,1.0,0.5056869983673096,0.9353333115577698,9.999999747378752e-05
0.0001257139228982851,1.0,0.5059078931808472,0.9353333115577698,9.999999747378752e-05
0.00010676831152522936,1.0,0.5055785775184631,0.9353333115577698,9.999999747378752e-05
9.456062252866104e-05,1.0,0.5059369802474976,0.9353333115577698,9.999999747378752e-05
8.264449570560828e-05,1.0,0.5067895650863647,0.9357777833938599,9.999999747378752e-05
8.164875180227682e-05,1.0,0.5075675249099731,0.9355555772781372,9.999999747378752e-05
8.873634942574427e-05,1.0,0.5081374645233154,0.9355555772781372,9.999999747378752e-05
5.434183549368754e-05,1.0,0.5087625980377197,0.9355555772781372,9.999999747378752e-05
6.167217361507937e-05,1.0,0.5093650817871094,0.9355555772781372,9.999999747378752e-05
5.660834358423017e-05,1.0,0.5099887251853943,0.9355555772781372,9.999999747378752e-05
9.666373807704076e-05,1.0,0.5102440714836121,0.9353333115577698,9.999999747378752e-05
5.250278263702057e-05,1.0,0.5104798674583435,0.9355555772781372,9.999999747378752e-05
9.861669968813658e-05,1.0,0.5103744864463806,0.9348888993263245,9.999999747378752e-05
7.481035572709516e-05,1.0,0.5103567838668823,0.9346666932106018,9.999999747378752e-05
0.00013335484254639596,1.0,0.5117685794830322,0.9344444274902344,9.999999747378752e-05
6.505349301733077e-05,1.0,0.5125296711921692,0.9346666932106018,9.999999747378752e-05
6.714473420288414e-05,1.0,0.5127447247505188,0.9348888993263245,9.999999747378752e-05
8.55034013511613e-05,1.0,0.512976348400116,0.9348888993263245,9.999999747378752e-05
7.931942673167214e-05,1.0,0.5131063461303711,0.9348888993263245,9.999999747378752e-05
0.00014709851529914886,1.0,0.5114932656288147,0.9342222213745117,9.999999747378752e-05
0.00016721767315175384,1.0,0.5106989741325378,0.9342222213745117,9.999999747378752e-05
5.677183798979968e-05,1.0,0.5098162889480591,0.9337777495384216,9.999999747378752e-05
7.787737558828667e-05,1.0,0.5101509690284729,0.9337777495384216,9.999999747378752e-05
8.31305151223205e-05,1.0,0.5106576085090637,0.9337777495384216,9.999999747378752e-05
7.791723328409716e-05,1.0,0.5112989544868469,0.9337777495384216,9.999999747378752e-05
6.057581049390137e-05,1.0,0.5121795535087585,0.9340000152587891,9.999999747378752e-05
4.1769726522034034e-05,1.0,0.5129193663597107,0.9342222213745117,9.999999747378752e-05
4.582857582136057e-05,1.0,0.5134733319282532,0.9342222213745117,9.999999747378752e-05
4.5216344005893916e-05,1.0,0.5137736797332764,0.9342222213745117,9.999999747378752e-05
5.676218279404566e-05,1.0,0.5146214962005615,0.9344444274902344,9.999999747378752e-05
7.219357212306932e-05,1.0,0.5156276822090149,0.9342222213745117,9.999999747378752e-05
5.0151575123891234e-05,1.0,0.5163713097572327,0.9342222213745117,9.999999747378752e-05
0.00010562299576122314,1.0,0.5190248489379883,0.9344444274902344,9.999999747378752e-05
5.8692614402389154e-05,1.0,0.5209083557128906,0.9340000152587891,9.999999747378752e-05
4.214228829368949e-05,1.0,0.5217605233192444,0.9340000152587891,9.999999747378752e-05
3.0175204301485792e-05,1.0,0.5220443606376648,0.9342222213745117,9.999999747378752e-05
4.678673212765716e-05,1.0,0.5222506523132324,0.9344444274902344,9.999999747378752e-05
0.00021176958398427814,1.0,0.5184794664382935,0.9331111311912537,9.999999747378752e-05
6.530471000587568e-05,1.0,0.5167276859283447,0.933555543422699,9.999999747378752e-05
4.2843974370043725e-05,1.0,0.5167490243911743,0.933555543422699,9.999999747378752e-05
7.101872324710712e-05,1.0,0.5176763534545898,0.933555543422699,9.999999747378752e-05
4.816411455976777e-05,1.0,0.5188239216804504,0.933555543422699,9.999999747378752e-05
0.00016875879373401403,1.0,0.5204805731773376,0.9331111311912537,9.999999747378752e-05
4.3859428842552006e-05,1.0,0.5216736197471619,0.9333333373069763,9.999999747378752e-05
5.189019429963082e-05,1.0,0.5219513773918152,0.9337777495384216,9.999999747378752e-05
3.6374090996105224e-05,1.0,0.522479772567749,0.9337777495384216,9.999999747378752e-05
6.297426443779841e-05,1.0,0.5226535797119141,0.9340000152587891,9.999999747378752e-05
4.466113750822842e-05,1.0,0.5222613215446472,0.9348888993263245,9.999999747378752e-05
4.868237374466844e-05,1.0,0.5224019885063171,0.9348888993263245,9.999999747378752e-05
3.421633300604299e-05,1.0,0.5223711729049683,0.9348888993263245,9.999999747378752e-05
4.655867087421939e-05,1.0,0.5224465727806091,0.9351111054420471,9.999999747378752e-05
7.349179213633761e-05,1.0,0.5225948095321655,0.9351111054420471,9.999999747378752e-05
3.478801227174699e-05,1.0,0.5228666067123413,0.9351111054420471,9.999999747378752e-05
4.254182567819953e-05,1.0,0.5235034823417664,0.9351111054420471,9.999999747378752e-05
6.363647116813809e-05,1.0,0.522930920124054,0.9351111054420471,9.999999747378752e-05
6.388204201357439e-05,1.0,0.522634744644165,0.9351111054420471,9.999999747378752e-05
5.649063677992672e-05,1.0,0.5225028395652771,0.9351111054420471,9.999999747378752e-05
6.654328171862289e-05,1.0,0.5228646397590637,0.9351111054420471,9.999999747378752e-05
6.38017663732171e-05,1.0,0.5231447219848633,0.9351111054420471,9.999999747378752e-05
3.161733548040502e-05,1.0,0.5237054824829102,0.9351111054420471,9.999999747378752e-05
2.6314888600609265e-05,1.0,0.5243168473243713,0.9351111054420471,9.999999747378752e-05
3.243686296627857e-05,1.0,0.5248672366142273,0.9351111054420471,9.999999747378752e-05
9.903327736537904e-05,1.0,0.5254563093185425,0.9353333115577698,9.999999747378752e-05
3.211633884347975e-05,1.0,0.5249912738800049,0.9353333115577698,9.999999747378752e-05
3.516778815537691e-05,1.0,0.5251944661140442,0.9353333115577698,9.999999747378752e-05
6.0094997024862096e-05,1.0,0.5256372690200806,0.9353333115577698,9.999999747378752e-05
2.5673785785329528e-05,1.0,0.5260359048843384,0.9351111054420471,9.999999747378752e-05
4.3145952076883987e-05,1.0,0.526728630065918,0.9351111054420471,9.999999747378752e-05
2.3746191800455563e-05,1.0,0.5272437334060669,0.9351111054420471,9.999999747378752e-05
2.4756916900514625e-05,1.0,0.5276989340782166,0.9351111054420471,9.999999747378752e-05
3.4110860724467784e-05,1.0,0.5282618999481201,0.9351111054420471,9.999999747378752e-05
3.9733396988594905e-05,1.0,0.5287449359893799,0.9351111054420471,9.999999747378752e-05
2.6479146981728263e-05,1.0,0.5290819406509399,0.9351111054420471,9.999999747378752e-05
4.0451901440974325e-05,1.0,0.5293629765510559,0.9351111054420471,9.999999747378752e-05
4.442157660378143e-05,1.0,0.5291967391967773,0.9351111054420471,9.999999747378752e-05
3.5250493965577334e-05,1.0,0.5294165015220642,0.9351111054420471,9.999999747378752e-05
2.5042994820978492e-05,1.0,0.5299592018127441,0.9353333115577698,9.999999747378752e-05
3.093419945798814e-05,1.0,0.5304635167121887,0.9353333115577698,9.999999747378752e-05
1.7739510440151207e-05,1.0,0.5307785868644714,0.9353333115577698,9.999999747378752e-05
3.0042589060030878e-05,1.0,0.5304409861564636,0.9353333115577698,9.999999747378752e-05
5.605948535958305e-05,1.0,0.5306258201599121,0.9355555772781372,9.999999747378752e-05
2.242709342681337e-05,1.0,0.5306628942489624,0.9355555772781372,9.999999747378752e-05
2.4682360162842087e-05,1.0,0.5310380458831787,0.9355555772781372,9.999999747378752e-05
3.287630170234479e-05,1.0,0.5315878391265869,0.9355555772781372,9.999999747378752e-05
5.300103293848224e-05,1.0,0.5311865210533142,0.9357777833938599,9.999999747378752e-05
2.7544479962671176e-05,1.0,0.5311003923416138,0.9357777833938599,9.999999747378752e-05
3.338654641993344e-05,1.0,0.5307396650314331,0.9357777833938599,9.999999747378752e-05
3.175450547132641e-05,1.0,0.5309487581253052,0.9357777833938599,9.999999747378752e-05
2.141808727174066e-05,1.0,0.5311341285705566,0.9357777833938599,9.999999747378752e-05
4.7207180614350364e-05,1.0,0.5316203832626343,0.9357777833938599,9.999999747378752e-05
3.1644358386984095e-05,1.0,0.5316104888916016,0.9357777833938599,9.999999747378752e-05
2.4418706743745133e-05,1.0,0.5316829681396484,0.9357777833938599,9.999999747378752e-05
3.941054092138074e-05,1.0,0.5321113467216492,0.9357777833938599,9.999999747378752e-05
3.273929178249091e-05,1.0,0.5325014591217041,0.9357777833938599,9.999999747378752e-05
2.181745003326796e-05,1.0,0.5328108072280884,0.9357777833938599,9.999999747378752e-05
3.7226476706564426e-05,1.0,0.5331558585166931,0.9357777833938599,9.999999747378752e-05
5.37119667569641e-05,1.0,0.5333154201507568,0.9357777833938599,9.999999747378752e-05
3.941070463042706e-05,1.0,0.5336318016052246,0.9357777833938599,9.999999747378752e-05
2.836511703208089e-05,1.0,0.5340020656585693,0.9357777833938599,9.999999747378752e-05
6.740935350535437e-05,1.0,0.5343139171600342,0.9357777833938599,9.999999747378752e-05
1.970258745132014e-05,1.0,0.5351849794387817,0.9353333115577698,9.999999747378752e-05
3.528119486873038e-05,1.0,0.5360956192016602,0.9353333115577698,9.999999747378752e-05
2.99389248539228e-05,1.0,0.5364824533462524,0.9353333115577698,9.999999747378752e-05
5.7117478718282655e-05,1.0,0.5366760492324829,0.9353333115577698,9.999999747378752e-05
4.8830435844138265e-05,1.0,0.5365777611732483,0.9353333115577698,9.999999747378752e-05
1.8569113308330998e-05,1.0,0.5367448329925537,0.9351111054420471,9.999999747378752e-05
3.5140365071129054e-05,1.0,0.5366771817207336,0.9351111054420471,9.999999747378752e-05
2.1276298866723664e-05,1.0,0.5364618897438049,0.9348888993263245,9.999999747378752e-05
4.084338070242666e-05,1.0,0.5364715456962585,0.9348888993263245,9.999999747378752e-05
2.3197640985017642e-05,1.0,0.5361345410346985,0.9355555772781372,9.999999747378752e-05
1.8159264072892256e-05,1.0,0.5362079739570618,0.9353333115577698,9.999999747378752e-05
3.502288382151164e-05,1.0,0.5353080630302429,0.9351111054420471,9.999999747378752e-05
2.8793157980544493e-05,1.0,0.5347472429275513,0.9348888993263245,9.999999747378752e-05
2.1049814677098766e-05,1.0,0.5349595546722412,0.9348888993263245,9.999999747378752e-05
2.8914102585986257e-05,1.0,0.5355027318000793,0.9348888993263245,9.999999747378752e-05
1.827842424972914e-05,1.0,0.5360157489776611,0.9348888993263245,9.999999747378752e-05
2.9105980502208695e-05,1.0,0.5366407632827759,0.9348888993263245,9.999999747378752e-05
2.089705776597839e-05,1.0,0.5368287563323975,0.9348888993263245,9.999999747378752e-05
2.064501677523367e-05,1.0,0.5373308658599854,0.9351111054420471,9.999999747378752e-05
2.1729438230977394e-05,1.0,0.5375838875770569,0.9351111054420471,9.999999747378752e-05
4.9116064474219456e-05,1.0,0.5379757285118103,0.9348888993263245,9.999999747378752e-05
3.218632627977058e-05,1.0,0.5384386777877808,0.9351111054420471,9.999999747378752e-05
2.318400402145926e-05,1.0,0.538926899433136,0.9351111054420471,9.999999747378752e-05
3.132437268504873e-05,1.0,0.5391649007797241,0.9348888993263245,9.999999747378752e-05
2.231565667898394e-05,1.0,0.5393286943435669,0.9351111054420471,9.999999747378752e-05
4.52762542408891e-05,1.0,0.5396777391433716,0.9351111054420471,9.999999747378752e-05
1.544227052363567e-05,1.0,0.5400169491767883,0.9348888993263245,9.999999747378752e-05
1.4293944332166575e-05,1.0,0.5401138663291931,0.9351111054420471,9.999999747378752e-05
3.689810910145752e-05,1.0,0.5393568873405457,0.9351111054420471,9.999999747378752e-05
4.658967736759223e-05,1.0,0.5390798449516296,0.9355555772781372,9.999999747378752e-05
3.392837606952526e-05,1.0,0.5390368103981018,0.9355555772781372,9.999999747378752e-05
2.639834929141216e-05,1.0,0.5388491153717041,0.9351111054420471,9.999999747378752e-05
3.899872172041796e-05,1.0,0.5393844246864319,0.9351111054420471,9.999999747378752e-05
2.1178046154091135e-05,1.0,0.5397224426269531,0.9351111054420471,9.999999747378752e-05
1.5652931324439123e-05,1.0,0.5398127436637878,0.9353333115577698,9.999999747378752e-05
2.0187431800877675e-05,1.0,0.5401813983917236,0.9353333115577698,9.999999747378752e-05
1.6738582417019643e-05,1.0,0.5406033992767334,0.9353333115577698,9.999999747378752e-05
2.3327362214331515e-05,1.0,0.5408624410629272,0.9353333115577698,9.999999747378752e-05
1.9547100237105042e-05,1.0,0.5410262942314148,0.9353333115577698,9.999999747378752e-05
2.4296943593071774e-05,1.0,0.5410870909690857,0.9355555772781372,9.999999747378752e-05
6.152340938569978e-05,1.0,0.5411807894706726,0.9353333115577698,9.999999747378752e-05
1.4745782209502067e-05,1.0,0.5410565137863159,0.9351111054420471,9.999999747378752e-05
1.4893383195158094e-05,1.0,0.5413349270820618,0.9351111054420471,9.999999747378752e-05
2.5544442905811593e-05,1.0,0.5418460965156555,0.9351111054420471,9.999999747378752e-05
2.8838470825576223e-05,1.0,0.5423486232757568,0.9351111054420471,9.999999747378752e-05
1.5541227185167372e-05,1.0,0.5424412488937378,0.9351111054420471,9.999999747378752e-05
2.746772406680975e-05,1.0,0.542637288570404,0.9353333115577698,9.999999747378752e-05
1.5848489056224935e-05,1.0,0.5424867868423462,0.9351111054420471,9.999999747378752e-05
2.1619704057229683e-05,1.0,0.5425118207931519,0.9353333115577698,9.999999747378752e-05
1.9749282728298567e-05,1.0,0.5430607795715332,0.9353333115577698,9.999999747378752e-05
3.061605093535036e-05,1.0,0.5436753034591675,0.9353333115577698,9.999999747378752e-05
5.433785918285139e-05,1.0,0.543206512928009,0.9355555772781372,9.999999747378752e-05
2.2732469005859457e-05,1.0,0.5431882739067078,0.9355555772781372,9.999999747378752e-05
1.7447213394916616e-05,1.0,0.5433714985847473,0.9357777833938599,9.999999747378752e-05
1.704186070128344e-05,1.0,0.5435627102851868,0.9357777833938599,9.999999747378752e-05
1.8176668163505383e-05,1.0,0.5441823601722717,0.9353333115577698,9.999999747378752e-05
1.8101232853950933e-05,1.0,0.5447350144386292,0.9353333115577698,9.999999747378752e-05
1.8761083993013017e-05,1.0,0.5452327132225037,0.9353333115577698,9.999999747378752e-05
1.968269316421356e-05,1.0,0.5453490614891052,0.9351111054420471,9.999999747378752e-05
0.0001355381973553449,1.0,0.5500379800796509,0.9351111054420471,9.999999747378752e-05
1.5600651749991812e-05,1.0,0.5529668927192688,0.9348888993263245,9.999999747378752e-05
3.5703043977264315e-05,1.0,0.5536714792251587,0.9348888993263245,9.999999747378752e-05
3.3569693187018856e-05,1.0,0.5523377656936646,0.9348888993263245,9.999999747378752e-05
4.1056551708607e-05,1.0,0.548304557800293,0.9348888993263245,9.999999747378752e-05
1.325974881183356e-05,1.0,0.5454527139663696,0.9348888993263245,9.999999747378752e-05
1.717325721983798e-05,1.0,0.5448639392852783,0.9348888993263245,9.999999747378752e-05
1.1152799743285868e-05,1.0,0.5448054671287537,0.9351111054420471,9.999999747378752e-05
1.2682575288636144e-05,1.0,0.5451812148094177,0.9351111054420471,9.999999747378752e-05
2.1671377908205613e-05,1.0,0.5458023548126221,0.9351111054420471,9.999999747378752e-05
2.118771408277098e-05,1.0,0.5463659763336182,0.9351111054420471,9.999999747378752e-05
2.5526229364913888e-05,1.0,0.5466378331184387,0.9351111054420471,9.999999747378752e-05
1.2455284377210774e-05,1.0,0.5471020936965942,0.9351111054420471,9.999999747378752e-05
1.619658178242389e-05,1.0,0.5472922921180725,0.9351111054420471,9.999999747378752e-05
2.2525990061694756e-05,1.0,0.547174334526062,0.9351111054420471,9.999999747378752e-05
1.1590231224545278e-05,1.0,0.5474796295166016,0.9351111054420471,9.999999747378752e-05
1.701139990473166e-05,1.0,0.5477733016014099,0.9353333115577698,9.999999747378752e-05
2.2727346731699072e-05,1.0,0.5479779243469238,0.9353333115577698,9.999999747378752e-05
1.8525348423281685e-05,1.0,0.5476364493370056,0.9351111054420471,9.999999747378752e-05
1.5135037756408565e-05,1.0,0.5475630164146423,0.9348888993263245,9.999999747378752e-05
4.152245310251601e-05,1.0,0.5463634133338928,0.9348888993263245,9.999999747378752e-05
2.0531346308416687e-05,1.0,0.546338677406311,0.9346666932106018,9.999999747378752e-05
3.224545798730105e-05,1.0,0.5464000701904297,0.9344444274902344,9.999999747378752e-05
1.9010813048225828e-05,1.0,0.5461187362670898,0.9340000152587891,9.999999747378752e-05
2.8421478418749757e-05,1.0,0.5464636087417603,0.9344444274902344,9.999999747378752e-05
1.4960286534915213e-05,1.0,0.5470470190048218,0.9344444274902344,9.999999747378752e-05
1.814235292840749e-05,1.0,0.5473734140396118,0.9346666932106018,9.999999747378752e-05
1.573579356772825e-05,1.0,0.5475903153419495,0.9346666932106018,9.999999747378752e-05
2.0041738025611266e-05,1.0,0.5482836961746216,0.9346666932106018,9.999999747378752e-05
2.052896707027685e-05,1.0,0.5483627319335938,0.9348888993263245,9.999999747378752e-05
2.1052466763649136e-05,1.0,0.5481438636779785,0.9348888993263245,9.999999747378752e-05
1.094260278478032e-05,1.0,0.548471212387085,0.9351111054420471,9.999999747378752e-05
1.3169690646464005e-05,1.0,0.5489928126335144,0.9353333115577698,9.999999747378752e-05
1.4523968275170773e-05,1.0,0.5495566129684448,0.9355555772781372,9.999999747378752e-05
1.765404704201501e-05,1.0,0.5498433113098145,0.9353333115577698,9.999999747378752e-05
1.3313185263541527e-05,1.0,0.5502822995185852,0.9353333115577698,9.999999747378752e-05
