loss,accuracy,val_loss,val_accuracy,lr
0.6986501216888428,0.6899999976158142,0.6362102031707764,0.6399999856948853,0.0010000000474974513
0.4377637207508087,0.7900000214576721,0.62088942527771,0.6399999856948853,0.0010000000474974513
0.30978116393089294,0.8899999856948853,0.6016535758972168,0.6399999856948853,0.0010000000474974513
0.2565290033817291,0.8899999856948853,0.5947045683860779,0.6399999856948853,0.0010000000474974513
0.2900150418281555,0.8700000047683716,0.58229660987854,0.6399999856948853,0.0010000000474974513
0.1788087785243988,0.9300000071525574,0.5715579390525818,0.6800000071525574,0.0010000000474974513
0.19017469882965088,0.8899999856948853,0.6058863401412964,0.8700000047683716,0.0010000000474974513
0.1463346928358078,0.9300000071525574,0.6022226810455322,0.800000011920929,0.0010000000474974513
0.1304994523525238,0.9599999785423279,0.5541381239891052,0.8700000047683716,0.0010000000474974513
0.11097147315740585,0.9599999785423279,0.5417104363441467,0.8799999952316284,0.0010000000474974513
0.07591623067855835,0.9800000190734863,0.5397287607192993,0.8799999952316284,0.0010000000474974513
0.07118823379278183,0.9800000190734863,0.5524144172668457,0.8299999833106995,0.0010000000474974513
0.056467682123184204,0.9800000190734863,0.6521875858306885,0.5,0.0010000000474974513
0.034075185656547546,0.9800000190734863,0.9003718495368958,0.36000001430511475,0.0010000000474974513
0.03879336267709732,1.0,0.9436174035072327,0.36000001430511475,0.0010000000474974513
0.028004657477140427,1.0,0.7704348564147949,0.4399999976158142,0.0010000000474974513
0.02401421032845974,1.0,0.8135880827903748,0.4300000071525574,0.0010000000474974513
0.012132230214774609,1.0,1.0340580940246582,0.36000001430511475,0.0010000000474974513
0.014527286402881145,1.0,1.1468151807785034,0.36000001430511475,0.0010000000474974513
0.011286560446023941,1.0,1.0228327512741089,0.36000001430511475,0.0010000000474974513
0.009133483283221722,1.0,0.9990422129631042,0.3799999952316284,0.0010000000474974513
0.007788864895701408,1.0,1.1877806186676025,0.36000001430511475,0.0010000000474974513
0.007769869174808264,1.0,1.2325912714004517,0.36000001430511475,0.0010000000474974513
0.009367928840219975,1.0,1.2149449586868286,0.36000001430511475,0.0010000000474974513
0.017328349873423576,1.0,1.6248751878738403,0.36000001430511475,0.0010000000474974513
0.005712732672691345,1.0,2.248199462890625,0.36000001430511475,0.0010000000474974513
0.011398735456168652,1.0,2.1110339164733887,0.36000001430511475,0.0010000000474974513
0.005406096111983061,1.0,1.5052965879440308,0.36000001430511475,0.0010000000474974513
0.004175277892500162,1.0,1.1794782876968384,0.38999998569488525,0.0010000000474974513
0.024543369188904762,1.0,1.8599753379821777,0.36000001430511475,0.0010000000474974513
0.003389397170394659,1.0,2.3037164211273193,0.36000001430511475,0.0010000000474974513
0.005168518982827663,1.0,2.5558714866638184,0.36000001430511475,0.0010000000474974513
0.005782037973403931,1.0,2.6363821029663086,0.36000001430511475,0.0010000000474974513
0.003595170332118869,1.0,2.6447935104370117,0.36000001430511475,0.0010000000474974513
0.0064321244135499,1.0,2.873189687728882,0.36000001430511475,0.0010000000474974513
0.003279331838712096,1.0,3.2472972869873047,0.36000001430511475,0.0010000000474974513
0.004610338248312473,1.0,3.280592918395996,0.36000001430511475,0.0010000000474974513
0.004249941557645798,1.0,3.021014928817749,0.36000001430511475,0.0010000000474974513
0.0025862448383122683,1.0,2.7312302589416504,0.36000001430511475,0.0010000000474974513
0.007290443871170282,1.0,2.887483835220337,0.36000001430511475,0.0010000000474974513
0.003933388274163008,1.0,3.372076988220215,0.36000001430511475,0.0010000000474974513
0.0015678256750106812,1.0,3.7780981063842773,0.36000001430511475,0.0010000000474974513
0.002646104898303747,1.0,4.030008316040039,0.36000001430511475,0.0010000000474974513
0.003442897228524089,1.0,4.148077487945557,0.36000001430511475,0.0010000000474974513
0.0020210659131407738,1.0,4.145961284637451,0.36000001430511475,0.0010000000474974513
0.0016078449552878737,1.0,4.115516662597656,0.36000001430511475,0.0010000000474974513
0.0011793780140578747,1.0,4.097155570983887,0.36000001430511475,0.0010000000474974513
0.0012693350436165929,1.0,4.114372253417969,0.36000001430511475,0.0010000000474974513
0.001344445743598044,1.0,4.164889812469482,0.36000001430511475,0.0010000000474974513
0.0009408381301909685,1.0,4.258101940155029,0.36000001430511475,0.0010000000474974513
0.0008135023526847363,1.0,4.361788749694824,0.36000001430511475,0.0010000000474974513
0.000949760084040463,1.0,4.4910783767700195,0.36000001430511475,0.0010000000474974513
0.0007707264157943428,1.0,4.617776870727539,0.36000001430511475,0.0010000000474974513
0.0007399246678687632,1.0,4.737637519836426,0.36000001430511475,0.0010000000474974513
0.0010205860016867518,1.0,4.848968505859375,0.36000001430511475,0.0010000000474974513
0.0007085229735821486,1.0,4.932522773742676,0.36000001430511475,0.0010000000474974513
0.0006617611506953835,1.0,4.993459701538086,0.36000001430511475,0.0010000000474974513
0.0006097865989431739,1.0,5.049293041229248,0.36000001430511475,0.0010000000474974513
0.0006146135274320841,1.0,5.0897216796875,0.36000001430511475,0.0010000000474974513
0.0005706059164367616,1.0,5.128721714019775,0.36000001430511475,0.0010000000474974513
0.0006660005310550332,1.0,5.16262674331665,0.36000001430511475,0.0010000000474974513
0.0011115147499367595,1.0,5.2012939453125,0.36000001430511475,0.0010000000474974513
0.0008046802831813693,1.0,5.259442329406738,0.36000001430511475,0.0010000000474974513
0.0004928791313432157,1.0,5.308338642120361,0.36000001430511475,0.0010000000474974513
0.000587589165661484,1.0,5.348179340362549,0.36000001430511475,0.0010000000474974513
0.0006990326219238341,1.0,5.378785610198975,0.36000001430511475,0.0010000000474974513
0.0008789868443273008,1.0,5.400388240814209,0.36000001430511475,0.0010000000474974513
0.0004590160388033837,1.0,5.40273904800415,0.36000001430511475,0.0010000000474974513
0.00045648860395886004,1.0,5.3960185050964355,0.36000001430511475,0.0010000000474974513
0.0004358839651104063,1.0,5.392194747924805,0.36000001430511475,0.0010000000474974513
0.00043627864215523005,1.0,5.385535717010498,0.36000001430511475,0.0010000000474974513
0.0004250421770848334,1.0,5.367596626281738,0.36000001430511475,0.0010000000474974513
0.000625366810709238,1.0,5.352778434753418,0.36000001430511475,0.0010000000474974513
0.00044842413626611233,1.0,5.332261562347412,0.36000001430511475,0.0010000000474974513
0.0003893043613061309,1.0,5.300584316253662,0.36000001430511475,0.0010000000474974513
0.0004892904544249177,1.0,5.268518447875977,0.36000001430511475,0.0010000000474974513
0.0010402142070233822,1.0,5.268622398376465,0.36000001430511475,0.0010000000474974513
0.0003854700189549476,1.0,5.3133864402771,0.36000001430511475,0.0010000000474974513
0.0003690506564453244,1.0,5.344725131988525,0.36000001430511475,0.0010000000474974513
0.0003641023358795792,1.0,5.360857963562012,0.36000001430511475,0.0010000000474974513
0.0012554035056382418,1.0,5.347817420959473,0.36000001430511475,0.0010000000474974513
0.00035269901854917407,1.0,5.278919219970703,0.36000001430511475,0.0010000000474974513
0.0003507317742332816,1.0,5.212939262390137,0.36000001430511475,0.0010000000474974513
0.0006066502537578344,1.0,5.144407749176025,0.36000001430511475,0.0010000000474974513
0.0003944940981455147,1.0,5.083035469055176,0.36000001430511475,0.0010000000474974513
0.0003561842895578593,1.0,5.038145065307617,0.36000001430511475,0.0010000000474974513
0.0005018327501602471,1.0,5.012231826782227,0.36000001430511475,0.0010000000474974513
0.00034113365109078586,1.0,4.98741340637207,0.36000001430511475,0.0010000000474974513
0.0005037119262851775,1.0,4.987178802490234,0.36000001430511475,0.0010000000474974513
0.00033772821188904345,1.0,5.007140636444092,0.36000001430511475,0.0010000000474974513
0.0005975955864414573,1.0,5.026087760925293,0.36000001430511475,0.0010000000474974513
0.0002945334417745471,1.0,5.049288749694824,0.36000001430511475,0.0010000000474974513
0.0002994991955347359,1.0,5.053112983703613,0.36000001430511475,0.0010000000474974513
0.000288442155579105,1.0,5.0443620681762695,0.36000001430511475,0.0010000000474974513
0.00038178040995262563,1.0,5.025221824645996,0.36000001430511475,0.0010000000474974513
0.00034760439302772284,1.0,4.99616003036499,0.36000001430511475,0.0010000000474974513
0.000419980933656916,1.0,4.961451530456543,0.36000001430511475,0.0010000000474974513
0.0006471796077676117,1.0,4.899541854858398,0.36000001430511475,0.0010000000474974513
0.0002732029533945024,1.0,4.7965240478515625,0.36000001430511475,0.0010000000474974513
0.0002801604277919978,1.0,4.704988479614258,0.36000001430511475,0.0010000000474974513
0.0013230352196842432,1.0,4.720642566680908,0.36000001430511475,0.0010000000474974513
0.0004904595552943647,1.0,4.838113784790039,0.36000001430511475,0.0010000000474974513
0.0007222850108519197,1.0,4.901515483856201,0.36000001430511475,0.0010000000474974513
0.00038602176937274635,1.0,4.905085563659668,0.36000001430511475,0.0010000000474974513
0.0006610924028791487,1.0,4.847713947296143,0.36000001430511475,0.0010000000474974513
0.00028227551956661046,1.0,4.733121871948242,0.36000001430511475,0.0010000000474974513
0.0003023419121745974,1.0,4.597353935241699,0.36000001430511475,0.0010000000474974513
0.00026882567908614874,1.0,4.456981658935547,0.36000001430511475,0.0010000000474974513
0.0003286789869889617,1.0,4.31437873840332,0.36000001430511475,0.0010000000474974513
0.0006237270426936448,1.0,4.173063278198242,0.36000001430511475,0.0010000000474974513
0.0002292782301083207,1.0,4.023053169250488,0.36000001430511475,0.0010000000474974513
0.00027478011907078326,1.0,3.8935277462005615,0.36000001430511475,0.0010000000474974513
0.00034633465111255646,1.0,3.7978014945983887,0.36000001430511475,0.0010000000474974513
0.00023552952916361392,1.0,3.730653762817383,0.36000001430511475,0.0010000000474974513
0.0004795879067387432,1.0,3.696636915206909,0.36000001430511475,0.0010000000474974513
0.00025962464860640466,1.0,3.662259578704834,0.36000001430511475,0.0010000000474974513
0.00026201712898910046,1.0,3.6415436267852783,0.36000001430511475,0.0010000000474974513
0.0004488835984375328,1.0,3.6452088356018066,0.36000001430511475,0.0010000000474974513
0.000929369474761188,1.0,3.6887221336364746,0.36000001430511475,0.0010000000474974513
0.00020040752133354545,1.0,3.738452672958374,0.36000001430511475,0.0010000000474974513
0.00021892193763051182,1.0,3.7648165225982666,0.36000001430511475,0.0010000000474974513
0.00021767518774140626,1.0,3.765403985977173,0.36000001430511475,0.0010000000474974513
0.0002425748825771734,1.0,3.741755485534668,0.36000001430511475,0.0010000000474974513
0.0002060230472125113,1.0,3.7027902603149414,0.36000001430511475,0.0010000000474974513
0.0002301330241607502,1.0,3.640101432800293,0.36000001430511475,0.0010000000474974513
0.00023064676497597247,1.0,3.5667710304260254,0.36000001430511475,0.0010000000474974513
0.00020933125051669776,1.0,3.4960947036743164,0.36000001430511475,0.0010000000474974513
0.00019235085346736014,1.0,3.414104700088501,0.36000001430511475,0.0010000000474974513
0.00022399444424081594,1.0,3.338085412979126,0.36000001430511475,0.0010000000474974513
0.00027466699248179793,1.0,3.258780002593994,0.36000001430511475,0.0010000000474974513
0.00023824311210773885,1.0,3.1610095500946045,0.36000001430511475,0.0010000000474974513
0.0001775737473508343,1.0,3.0704705715179443,0.36000001430511475,0.0010000000474974513
0.00020819691417273134,1.0,2.9804999828338623,0.36000001430511475,0.0010000000474974513
0.00028283559367991984,1.0,2.9039688110351562,0.36000001430511475,0.0010000000474974513
0.00017541735724080354,1.0,2.822416305541992,0.36000001430511475,0.0010000000474974513
0.00021307064162101597,1.0,2.7574877738952637,0.36000001430511475,0.0010000000474974513
0.00016768038040027022,1.0,2.7130510807037354,0.36000001430511475,0.0010000000474974513
0.0001771826355252415,1.0,2.6711456775665283,0.36000001430511475,0.0010000000474974513
0.0001645718584768474,1.0,2.6333608627319336,0.36000001430511475,0.0010000000474974513
0.00016239873366430402,1.0,2.5962395668029785,0.36000001430511475,0.0010000000474974513
0.00016036402666941285,1.0,2.5580029487609863,0.36000001430511475,0.0010000000474974513
0.0001789458910934627,1.0,2.5184316635131836,0.36000001430511475,0.0010000000474974513
0.00020293067791499197,1.0,2.4786953926086426,0.3700000047683716,0.0010000000474974513
0.00016715838864911348,1.0,2.436055898666382,0.4000000059604645,0.0010000000474974513
0.00019300518033560365,1.0,2.3948938846588135,0.4000000059604645,0.0010000000474974513
0.00018634309526532888,1.0,2.3565659523010254,0.4000000059604645,0.0010000000474974513
0.00031053804559633136,1.0,2.325657606124878,0.4000000059604645,0.0010000000474974513
0.0013130174484103918,1.0,2.290095567703247,0.4000000059604645,0.0010000000474974513
0.00021754209592472762,1.0,2.272184371948242,0.4000000059604645,0.0010000000474974513
0.00015966493810992688,1.0,2.2467708587646484,0.4099999964237213,0.0010000000474974513
0.00019748903287108988,1.0,2.2072041034698486,0.41999998688697815,0.0010000000474974513
0.0002098824770655483,1.0,2.154481887817383,0.4399999976158142,0.0010000000474974513
0.00017313384159933776,1.0,2.099924325942993,0.46000000834465027,0.0010000000474974513
0.0002469671017024666,1.0,2.032696485519409,0.47999998927116394,0.0010000000474974513
0.000173074979102239,1.0,1.9632525444030762,0.5199999809265137,0.0010000000474974513
0.00017418820061720908,1.0,1.8879351615905762,0.5600000023841858,0.0010000000474974513
0.00015716470079496503,1.0,1.8166756629943848,0.5600000023841858,0.0010000000474974513
0.00014950711920391768,1.0,1.7509939670562744,0.5799999833106995,0.0010000000474974513
0.00015030456415843219,1.0,1.6878515481948853,0.6000000238418579,0.0010000000474974513
0.0001526024134363979,1.0,1.6272156238555908,0.6200000047683716,0.0010000000474974513
0.00016453668649774045,1.0,1.5766863822937012,0.6299999952316284,0.0010000000474974513
0.0002953352523036301,1.0,1.5394171476364136,0.6499999761581421,0.0005000000237487257
0.0001479398924857378,1.0,1.5106273889541626,0.6800000071525574,0.0005000000237487257
0.00014115516387391835,1.0,1.4827337265014648,0.699999988079071,0.0005000000237487257
0.00014476543583441526,1.0,1.456113576889038,0.7099999785423279,0.0005000000237487257
0.00013787677744403481,1.0,1.4305124282836914,0.7200000286102295,0.0005000000237487257
0.00013714907981920987,1.0,1.4044156074523926,0.7200000286102295,0.0005000000237487257
0.000142348711960949,1.0,1.3759756088256836,0.7200000286102295,0.0005000000237487257
0.00014447819557972252,1.0,1.349877953529358,0.7200000286102295,0.0005000000237487257
0.00013939318887423724,1.0,1.321950078010559,0.7200000286102295,0.0005000000237487257
0.00016522087389603257,1.0,1.2964855432510376,0.7200000286102295,0.0005000000237487257
0.00013801330351270735,1.0,1.2681916952133179,0.7200000286102295,0.0005000000237487257
0.00013184086128603667,1.0,1.2422107458114624,0.7400000095367432,0.0005000000237487257
0.00013461962225846946,1.0,1.2163493633270264,0.75,0.0005000000237487257
0.00013764829782303423,1.0,1.1910231113433838,0.7599999904632568,0.0005000000237487257
0.0001425838709110394,1.0,1.1672898530960083,0.7599999904632568,0.0005000000237487257
0.0007979521178640425,1.0,1.133445382118225,0.7699999809265137,0.0005000000237487257
0.000270036980509758,1.0,1.0853923559188843,0.7799999713897705,0.0005000000237487257
0.00013539557403419167,1.0,1.0524787902832031,0.7900000214576721,0.0005000000237487257
0.000157546965056099,1.0,1.0238616466522217,0.7900000214576721,0.0005000000237487257
0.00019261406851001084,1.0,0.9988773465156555,0.800000011920929,0.0005000000237487257
0.0001347810321021825,1.0,0.9784374833106995,0.8100000023841858,0.0005000000237487257
0.00024355310597456992,1.0,0.9588329195976257,0.8299999833106995,0.0005000000237487257
0.00013634121569339186,1.0,0.9456057548522949,0.8299999833106995,0.0005000000237487257
0.00014452013419941068,1.0,0.9298822283744812,0.8299999833106995,0.0005000000237487257
0.00015658661141060293,1.0,0.9163774251937866,0.8399999737739563,0.0005000000237487257
0.00016153970500454307,1.0,0.9044870734214783,0.8399999737739563,0.0005000000237487257
0.00021763276890851557,1.0,0.8933489918708801,0.8500000238418579,0.0005000000237487257
0.00013081733777653426,1.0,0.8802855014801025,0.8500000238418579,0.0005000000237487257
0.00012880329450126737,1.0,0.8676048517227173,0.8500000238418579,0.0005000000237487257
0.00017100713739637285,1.0,0.8533371686935425,0.8500000238418579,0.0005000000237487257
0.00012245555990375578,1.0,0.8399263024330139,0.8500000238418579,0.0005000000237487257
0.00011973344953730702,1.0,0.827322244644165,0.8600000143051147,0.0005000000237487257
0.00012979759776499122,1.0,0.8164398074150085,0.8600000143051147,0.0005000000237487257
0.00017657302669249475,1.0,0.8068426251411438,0.8600000143051147,0.0005000000237487257
0.00011659653682727367,1.0,0.795406699180603,0.8600000143051147,0.0005000000237487257
0.00025243835989385843,1.0,0.7831704616546631,0.8600000143051147,0.0005000000237487257
0.0001428384566679597,1.0,0.7727192640304565,0.8600000143051147,0.0005000000237487257
0.0002305123780388385,1.0,0.7638691067695618,0.8600000143051147,0.0005000000237487257
0.00016475567827001214,1.0,0.7582756280899048,0.8600000143051147,0.0005000000237487257
0.00024206774833146483,1.0,0.749850332736969,0.8600000143051147,0.0005000000237487257
0.00025496361195109785,1.0,0.7432602047920227,0.8600000143051147,0.0005000000237487257
0.00022259795514401048,1.0,0.7397990226745605,0.8600000143051147,0.0005000000237487257
0.00014247991202864796,1.0,0.7360060811042786,0.8600000143051147,0.0005000000237487257
0.00017604757158551365,1.0,0.7320112586021423,0.8600000143051147,0.0005000000237487257
0.00011630302469711751,1.0,0.7242375016212463,0.8600000143051147,0.0005000000237487257
0.00011792506120400503,1.0,0.7159590125083923,0.8600000143051147,0.0005000000237487257
0.00013765924086328596,1.0,0.7080393433570862,0.8600000143051147,0.0005000000237487257
0.00016369909280911088,1.0,0.6978507041931152,0.8600000143051147,0.0005000000237487257
0.00011341696517774835,1.0,0.688454270362854,0.8600000143051147,0.0005000000237487257
0.00012082392640877515,1.0,0.6794731616973877,0.8600000143051147,0.0005000000237487257
0.00011707214434864,1.0,0.6690531969070435,0.8600000143051147,0.0005000000237487257
0.00021601565822493285,1.0,0.6567100286483765,0.8600000143051147,0.0005000000237487257
0.000149724175571464,1.0,0.6475051641464233,0.8600000143051147,0.0005000000237487257
0.00013672774366568774,1.0,0.6371694803237915,0.8600000143051147,0.0005000000237487257
0.00012654885358642787,1.0,0.6251842379570007,0.8600000143051147,0.0005000000237487257
0.00010624480637488887,1.0,0.6146661043167114,0.8700000047683716,0.0005000000237487257
0.00012847506150137633,1.0,0.6049858331680298,0.8799999952316284,0.0005000000237487257
0.00010836127330549061,1.0,0.5968090891838074,0.8799999952316284,0.0005000000237487257
0.0001282772864215076,1.0,0.5903737545013428,0.8799999952316284,0.0005000000237487257
0.00016370933735743165,1.0,0.5853901505470276,0.8799999952316284,0.0005000000237487257
0.0001278628915315494,1.0,0.5790318846702576,0.8899999856948853,0.0005000000237487257
0.00010418422607472166,1.0,0.5735921263694763,0.8899999856948853,0.0005000000237487257
0.00011230150994379073,1.0,0.5685101747512817,0.8899999856948853,0.0005000000237487257
0.00010193997150054201,1.0,0.5633102655410767,0.8899999856948853,0.0005000000237487257
0.00013440693146549165,1.0,0.5591858625411987,0.8899999856948853,0.0005000000237487257
0.00011316770542180166,1.0,0.5547664761543274,0.8799999952316284,0.0005000000237487257
0.00012402361608110368,1.0,0.5502453446388245,0.8799999952316284,0.0005000000237487257
0.00019860148313455284,1.0,0.5446636080741882,0.8799999952316284,0.0005000000237487257
9.986013174057007e-05,1.0,0.5407307147979736,0.8899999856948853,0.0005000000237487257
0.00013237116218078882,1.0,0.5374341011047363,0.8899999856948853,0.0005000000237487257
9.995298751164228e-05,1.0,0.5332753658294678,0.8899999856948853,0.0005000000237487257
0.0001204214058816433,1.0,0.5301892161369324,0.8899999856948853,0.0005000000237487257
0.0001245447783730924,1.0,0.5269295573234558,0.8899999856948853,0.0005000000237487257
0.00015868589980527759,1.0,0.5242206454277039,0.8899999856948853,0.0005000000237487257
0.00017592060612514615,1.0,0.5209781527519226,0.8899999856948853,0.0005000000237487257
0.00012692991003859788,1.0,0.5155279636383057,0.8899999856948853,0.0005000000237487257
0.00012491698726080358,1.0,0.5106881856918335,0.8899999856948853,0.0005000000237487257
9.731877798913047e-05,1.0,0.5068327188491821,0.8899999856948853,0.0005000000237487257
0.0002022792468778789,1.0,0.5034931302070618,0.8899999856948853,0.0005000000237487257
0.00010105721594300121,1.0,0.5005367994308472,0.8899999856948853,0.0002500000118743628
0.00010031694546341896,1.0,0.4976339042186737,0.8899999856948853,0.0002500000118743628
0.00012620032066479325,1.0,0.4949975907802582,0.8899999856948853,0.0002500000118743628
0.00012013960804324597,1.0,0.4923864006996155,0.8899999856948853,0.0002500000118743628
9.973529813578352e-05,1.0,0.48916390538215637,0.9100000262260437,0.0002500000118743628
0.00011455576168373227,1.0,0.48533177375793457,0.9100000262260437,0.0002500000118743628
0.00010584108531475067,1.0,0.48209160566329956,0.9100000262260437,0.0002500000118743628
9.56799485720694e-05,1.0,0.4787006378173828,0.9100000262260437,0.0002500000118743628
0.00010788816871354356,1.0,0.4756157696247101,0.9100000262260437,0.0002500000118743628
9.800047700991854e-05,1.0,0.4723019301891327,0.9100000262260437,0.0002500000118743628
0.00012060606240993366,1.0,0.46939507126808167,0.9100000262260437,0.0002500000118743628
9.531282557873055e-05,1.0,0.46600237488746643,0.9200000166893005,0.0002500000118743628
0.00015115200949367136,1.0,0.4632962942123413,0.9200000166893005,0.0002500000118743628
0.00021381569968070835,1.0,0.4603966474533081,0.9200000166893005,0.0002500000118743628
0.00010226681479252875,1.0,0.45655685663223267,0.9200000166893005,0.0002500000118743628
0.00012164279905846342,1.0,0.45357659459114075,0.9200000166893005,0.0002500000118743628
0.00010432754061184824,1.0,0.45079147815704346,0.9200000166893005,0.0002500000118743628
9.543072519591078e-05,1.0,0.44786956906318665,0.9200000166893005,0.0002500000118743628
9.854145173449069e-05,1.0,0.4453520178794861,0.9200000166893005,0.0002500000118743628
0.00011609149805735797,1.0,0.4428863525390625,0.9200000166893005,0.0002500000118743628
0.00011175873805768788,1.0,0.44087570905685425,0.9200000166893005,0.0002500000118743628
0.00014230601664166898,1.0,0.43909507989883423,0.9200000166893005,0.0002500000118743628
0.00011448927398305386,1.0,0.43764975666999817,0.9200000166893005,0.0002500000118743628
9.911725646816194e-05,1.0,0.43639859557151794,0.9100000262260437,0.0002500000118743628
9.654631867306307e-05,1.0,0.4352428913116455,0.9100000262260437,0.0002500000118743628
0.00011105616431450471,1.0,0.43408912420272827,0.9100000262260437,0.0002500000118743628
0.00011833079042844474,1.0,0.43347984552383423,0.9100000262260437,0.0002500000118743628
0.00011692078987834975,1.0,0.4327819049358368,0.9100000262260437,0.0002500000118743628
0.00010482533252798021,1.0,0.4317263662815094,0.9100000262260437,0.0002500000118743628
9.65998915489763e-05,1.0,0.430542528629303,0.9100000262260437,0.0002500000118743628
0.00014229088264983147,1.0,0.4296037256717682,0.9100000262260437,0.0002500000118743628
0.00014966637536417693,1.0,0.42886266112327576,0.9100000262260437,0.0002500000118743628
9.562968625687063e-05,1.0,0.42769813537597656,0.9100000262260437,0.0002500000118743628
9.833552758209407e-05,1.0,0.4268934726715088,0.9200000166893005,0.0002500000118743628
9.47073131101206e-05,1.0,0.4260789453983307,0.9200000166893005,0.0002500000118743628
0.00010330794611945748,1.0,0.42509520053863525,0.9300000071525574,0.0002500000118743628
0.00010810193634824827,1.0,0.4237458109855652,0.9300000071525574,0.0002500000118743628
9.444652096135542e-05,1.0,0.4225809574127197,0.9300000071525574,0.0002500000118743628
9.734709601616487e-05,1.0,0.4216304421424866,0.9300000071525574,0.0002500000118743628
9.728102304507047e-05,1.0,0.4206302762031555,0.9300000071525574,0.0002500000118743628
9.639671043260023e-05,1.0,0.4195820689201355,0.9300000071525574,0.0002500000118743628
9.316722571384162e-05,1.0,0.4184201955795288,0.9300000071525574,0.0002500000118743628
9.466928167967126e-05,1.0,0.4173702597618103,0.9300000071525574,0.0002500000118743628
9.507057984592393e-05,1.0,0.41645702719688416,0.9300000071525574,0.0002500000118743628
0.00011244475172134116,1.0,0.41581717133522034,0.9300000071525574,0.0002500000118743628
0.00015669349522795528,1.0,0.4153369665145874,0.9300000071525574,0.0002500000118743628
0.00013015979493502527,1.0,0.4142516255378723,0.9300000071525574,0.0002500000118743628
0.0002015604404732585,1.0,0.4138478934764862,0.9300000071525574,0.0002500000118743628
0.00010490095155546442,1.0,0.4130686819553375,0.9300000071525574,0.0002500000118743628
0.00013799774751532823,1.0,0.41224396228790283,0.9300000071525574,0.0002500000118743628
0.00019140151562169194,1.0,0.4113374352455139,0.9300000071525574,0.0001250000059371814
0.00011087406164733693,1.0,0.4108552634716034,0.9300000071525574,0.0001250000059371814
0.00012204315862618387,1.0,0.4103940725326538,0.9300000071525574,0.0001250000059371814
8.734501170692965e-05,1.0,0.40969932079315186,0.9300000071525574,0.0001250000059371814
9.429208876099437e-05,1.0,0.4089969992637634,0.9300000071525574,0.0001250000059371814
0.0001489274436607957,1.0,0.40868210792541504,0.9300000071525574,0.0001250000059371814
9.045682236319408e-05,1.0,0.40811362862586975,0.9300000071525574,0.0001250000059371814
0.00015323012485168874,1.0,0.4075877368450165,0.9300000071525574,0.0001250000059371814
8.818870264803991e-05,1.0,0.4072682857513428,0.9300000071525574,0.0001250000059371814
0.00018473992531653494,1.0,0.40680527687072754,0.9300000071525574,0.0001250000059371814
0.00011106953024864197,1.0,0.4064868092536926,0.9300000071525574,0.0001250000059371814
8.82460517459549e-05,1.0,0.4060560464859009,0.9300000071525574,0.0001250000059371814
0.00010593901970423758,1.0,0.4056555926799774,0.9300000071525574,0.0001250000059371814
0.0004891931894235313,1.0,0.4052307903766632,0.9300000071525574,0.0001250000059371814
0.0001467642723582685,1.0,0.4037345051765442,0.9300000071525574,0.0001250000059371814
9.213986049871892e-05,1.0,0.4025055170059204,0.9300000071525574,0.0001250000059371814
9.394893277203664e-05,1.0,0.4016355276107788,0.9300000071525574,0.0001250000059371814
9.076818241737783e-05,1.0,0.4009641408920288,0.9300000071525574,0.0001250000059371814
9.196864266414195e-05,1.0,0.4003922939300537,0.9300000071525574,0.0001250000059371814
9.345552098238841e-05,1.0,0.40001487731933594,0.9300000071525574,0.0001250000059371814
8.702676859684289e-05,1.0,0.3996773660182953,0.9300000071525574,0.0001250000059371814
8.658701699459925e-05,1.0,0.39947494864463806,0.9300000071525574,0.0001250000059371814
9.282395330956206e-05,1.0,0.3993160128593445,0.9300000071525574,0.0001250000059371814
8.683722262503579e-05,1.0,0.39920657873153687,0.9300000071525574,0.0001250000059371814
0.00020846146799158305,1.0,0.3993508219718933,0.9300000071525574,0.0001250000059371814
9.468194184591994e-05,1.0,0.3993191421031952,0.9300000071525574,0.0001250000059371814
0.00013296547695063055,1.0,0.3992403447628021,0.9300000071525574,0.0001250000059371814
0.00011509254545671865,1.0,0.39942046999931335,0.9300000071525574,0.0001250000059371814
9.175862942356616e-05,1.0,0.3994726538658142,0.9300000071525574,0.0001250000059371814
0.00013456477608997375,1.0,0.3994844853878021,0.9300000071525574,0.0001250000059371814
0.00017561204731464386,1.0,0.3995605409145355,0.9200000166893005,0.0001250000059371814
8.98536090971902e-05,1.0,0.39968955516815186,0.9200000166893005,0.0001250000059371814
0.00027601682813838124,1.0,0.4001838266849518,0.9200000166893005,0.0001250000059371814
0.0003072770778089762,1.0,0.40070003271102905,0.9200000166893005,0.0001250000059371814
8.990741480374709e-05,1.0,0.4015316665172577,0.9200000166893005,0.0001250000059371814
0.00010343620670028031,1.0,0.4022303819656372,0.9200000166893005,0.0001250000059371814
0.00011048462329199538,1.0,0.4028886556625366,0.9200000166893005,0.0001250000059371814
0.00010522798402234912,1.0,0.40336647629737854,0.9200000166893005,0.0001250000059371814
0.00010585419659037143,1.0,0.4039210379123688,0.9200000166893005,0.0001250000059371814
0.00011435067426646128,1.0,0.40439337491989136,0.9200000166893005,0.0001250000059371814
0.00011098481627414003,1.0,0.40482884645462036,0.9200000166893005,0.0001250000059371814
0.00013739833957515657,1.0,0.40496695041656494,0.9200000166893005,0.0001250000059371814
9.114179556490853e-05,1.0,0.4050983488559723,0.9200000166893005,0.0001250000059371814
8.777115726843476e-05,1.0,0.40519821643829346,0.9200000166893005,0.0001250000059371814
9.048762149177492e-05,1.0,0.4052305519580841,0.9200000166893005,0.0001250000059371814
8.712558337720111e-05,1.0,0.4052344560623169,0.9200000166893005,0.0001250000059371814
0.00021148014639038593,1.0,0.4049093723297119,0.9200000166893005,0.0001250000059371814
8.738508768146858e-05,1.0,0.4043656289577484,0.9200000166893005,0.0001250000059371814
0.00010885980009334162,1.0,0.4039383828639984,0.9200000166893005,0.0001250000059371814
0.0001289490464841947,1.0,0.40357962250709534,0.9200000166893005,0.0001250000059371814
9.042792225955054e-05,1.0,0.40346160531044006,0.9200000166893005,9.999999747378752e-05
0.00011951669148402289,1.0,0.4033721089363098,0.9100000262260437,9.999999747378752e-05
8.908339077606797e-05,1.0,0.4032067358493805,0.9100000262260437,9.999999747378752e-05
8.747812535148114e-05,1.0,0.4030710458755493,0.9100000262260437,9.999999747378752e-05
0.00010243933502351865,1.0,0.40302789211273193,0.9100000262260437,9.999999747378752e-05
8.307061943924055e-05,1.0,0.40299826860427856,0.9100000262260437,9.999999747378752e-05
8.265933865914121e-05,1.0,0.4029863476753235,0.9100000262260437,9.999999747378752e-05
0.00024992949329316616,1.0,0.40309402346611023,0.9100000262260437,9.999999747378752e-05
8.45712493173778e-05,1.0,0.40317633748054504,0.9100000262260437,9.999999747378752e-05
0.0001328301295870915,1.0,0.40334999561309814,0.9100000262260437,9.999999747378752e-05
0.00018683995585888624,1.0,0.4035067856311798,0.9100000262260437,9.999999747378752e-05
0.00010881954221986234,1.0,0.40361541509628296,0.9100000262260437,9.999999747378752e-05
8.722339407540858e-05,1.0,0.40371638536453247,0.9100000262260437,9.999999747378752e-05
8.306340168928728e-05,1.0,0.40382739901542664,0.9100000262260437,9.999999747378752e-05
0.0001003155775833875,1.0,0.4038916826248169,0.9100000262260437,9.999999747378752e-05
8.515648369211704e-05,1.0,0.4040263295173645,0.9100000262260437,9.999999747378752e-05
8.368915587197989e-05,1.0,0.40414199233055115,0.9100000262260437,9.999999747378752e-05
8.77125930855982e-05,1.0,0.40426504611968994,0.9100000262260437,9.999999747378752e-05
0.00010399603343103081,1.0,0.4043956398963928,0.9100000262260437,9.999999747378752e-05
0.00045230620889924467,1.0,0.4045122563838959,0.9100000262260437,9.999999747378752e-05
8.855231862980872e-05,1.0,0.40423446893692017,0.9100000262260437,9.999999747378752e-05
0.0001302679011132568,1.0,0.40407559275627136,0.9100000262260437,9.999999747378752e-05
0.00010462143109180033,1.0,0.40402427315711975,0.9100000262260437,9.999999747378752e-05
0.00014418667706195265,1.0,0.4039749205112457,0.9100000262260437,9.999999747378752e-05
8.460812387056649e-05,1.0,0.4038596749305725,0.9100000262260437,9.999999747378752e-05
8.596439874963835e-05,1.0,0.40380915999412537,0.9100000262260437,9.999999747378752e-05
0.0001900244678836316,1.0,0.4038124084472656,0.9100000262260437,9.999999747378752e-05
8.599799184594303e-05,1.0,0.4038301110267639,0.9100000262260437,9.999999747378752e-05
9.95131122181192e-05,1.0,0.4038459360599518,0.9100000262260437,9.999999747378752e-05
8.311582496389747e-05,1.0,0.40393880009651184,0.9100000262260437,9.999999747378752e-05
8.89558723429218e-05,1.0,0.40399566292762756,0.9100000262260437,9.999999747378752e-05
0.00018014441593550146,1.0,0.4042448103427887,0.9100000262260437,9.999999747378752e-05
8.178451389539987e-05,1.0,0.404415100812912,0.9100000262260437,9.999999747378752e-05
8.774889283813536e-05,1.0,0.4045983850955963,0.9100000262260437,9.999999747378752e-05
9.370239422423765e-05,1.0,0.4047618508338928,0.9100000262260437,9.999999747378752e-05
0.00013546743139158934,1.0,0.4048832654953003,0.9100000262260437,9.999999747378752e-05
0.0001000056799966842,1.0,0.40511611104011536,0.9100000262260437,9.999999747378752e-05
8.48927375045605e-05,1.0,0.4052870571613312,0.9100000262260437,9.999999747378752e-05
8.772248111199588e-05,1.0,0.4054836332798004,0.9100000262260437,9.999999747378752e-05
0.000248841563006863,1.0,0.40566742420196533,0.9100000262260437,9.999999747378752e-05
0.00013711847714148462,1.0,0.40572524070739746,0.9100000262260437,9.999999747378752e-05
9.982807387132198e-05,1.0,0.40588217973709106,0.9100000262260437,9.999999747378752e-05
0.00010496580944163725,1.0,0.4059271514415741,0.9100000262260437,9.999999747378752e-05
0.00010661121632438153,1.0,0.40597259998321533,0.9100000262260437,9.999999747378752e-05
0.0001824612554628402,1.0,0.4060911536216736,0.9100000262260437,9.999999747378752e-05
8.807219273876399e-05,1.0,0.40612176060676575,0.9100000262260437,9.999999747378752e-05
8.549787162337452e-05,1.0,0.4063054919242859,0.9100000262260437,9.999999747378752e-05
0.0001386837539030239,1.0,0.40631434321403503,0.9100000262260437,9.999999747378752e-05
8.050553151406348e-05,1.0,0.40623578429222107,0.9100000262260437,9.999999747378752e-05
9.487319766776636e-05,1.0,0.40626126527786255,0.9100000262260437,9.999999747378752e-05
9.461856097914279e-05,1.0,0.40640899538993835,0.9100000262260437,9.999999747378752e-05
8.557803084840998e-05,1.0,0.40649187564849854,0.9100000262260437,9.999999747378752e-05
8.203469042200595e-05,1.0,0.4066826105117798,0.9100000262260437,9.999999747378752e-05
8.392637391807511e-05,1.0,0.40688416361808777,0.9100000262260437,9.999999747378752e-05
8.369133865926415e-05,1.0,0.407098650932312,0.9100000262260437,9.999999747378752e-05
0.00012740447709802538,1.0,0.4074265956878662,0.9100000262260437,9.999999747378752e-05
0.00014158667181618512,1.0,0.40775105357170105,0.9100000262260437,9.999999747378752e-05
8.003357652341947e-05,1.0,0.4081059992313385,0.9100000262260437,9.999999747378752e-05
0.00013020439655520022,1.0,0.40836942195892334,0.9100000262260437,9.999999747378752e-05
0.0001422073255525902,1.0,0.4085162281990051,0.9100000262260437,9.999999747378752e-05
0.00021421255951281637,1.0,0.40852534770965576,0.9100000262260437,9.999999747378752e-05
8.64589965203777e-05,1.0,0.4088380038738251,0.9100000262260437,9.999999747378752e-05
9.851083450485021e-05,1.0,0.4091329276561737,0.9100000262260437,9.999999747378752e-05
8.116821845760569e-05,1.0,0.40937668085098267,0.9100000262260437,9.999999747378752e-05
8.3817561971955e-05,1.0,0.40967151522636414,0.9100000262260437,9.999999747378752e-05
0.00014658161671832204,1.0,0.4099075198173523,0.9100000262260437,9.999999747378752e-05
0.00010215518705081195,1.0,0.41003063321113586,0.9100000262260437,9.999999747378752e-05
8.142798469634727e-05,1.0,0.41022515296936035,0.9100000262260437,9.999999747378752e-05
8.63755340105854e-05,1.0,0.41036880016326904,0.9100000262260437,9.999999747378752e-05
7.871291745686904e-05,1.0,0.4106124937534332,0.9100000262260437,9.999999747378752e-05
8.333996811416e-05,1.0,0.41083449125289917,0.9100000262260437,9.999999747378752e-05
9.68451495282352e-05,1.0,0.4112110137939453,0.9100000262260437,9.999999747378752e-05
0.00012828956823796034,1.0,0.41159552335739136,0.9100000262260437,9.999999747378752e-05
0.0001230909110745415,1.0,0.41197502613067627,0.9100000262260437,9.999999747378752e-05
7.90240301284939e-05,1.0,0.41225504875183105,0.9100000262260437,9.999999747378752e-05
8.897014049580321e-05,1.0,0.41241180896759033,0.9100000262260437,9.999999747378752e-05
8.063294080784544e-05,1.0,0.41259029507637024,0.9100000262260437,9.999999747378752e-05
0.00018677543266676366,1.0,0.4125927984714508,0.9100000262260437,9.999999747378752e-05
0.00010007526725530624,1.0,0.4127548933029175,0.9100000262260437,9.999999747378752e-05
8.265083306469023e-05,1.0,0.412809818983078,0.9100000262260437,9.999999747378752e-05
0.0002533066726755351,1.0,0.4126851558685303,0.9100000262260437,9.999999747378752e-05
9.469062933931127e-05,1.0,0.4127598702907562,0.9100000262260437,9.999999747378752e-05
9.398646943736821e-05,1.0,0.412903755903244,0.9100000262260437,9.999999747378752e-05
0.000122791578178294,1.0,0.41310009360313416,0.9100000262260437,9.999999747378752e-05
0.00018519946024753153,1.0,0.41301777958869934,0.9100000262260437,9.999999747378752e-05
8.100202103378251e-05,1.0,0.4128957986831665,0.9100000262260437,9.999999747378752e-05
7.786183414282277e-05,1.0,0.41287022829055786,0.9100000262260437,9.999999747378752e-05
0.00010183313133893535,1.0,0.4128364622592926,0.9100000262260437,9.999999747378752e-05
7.818480662535876e-05,1.0,0.41296860575675964,0.9100000262260437,9.999999747378752e-05
0.0001532940223114565,1.0,0.41333359479904175,0.9100000262260437,9.999999747378752e-05
8.36993203847669e-05,1.0,0.4133704900741577,0.9100000262260437,9.999999747378752e-05
8.37302504805848e-05,1.0,0.4134802222251892,0.9100000262260437,9.999999747378752e-05
8.266855729743838e-05,1.0,0.41365286707878113,0.9100000262260437,9.999999747378752e-05
0.00012844002048950642,1.0,0.4136193096637726,0.9100000262260437,9.999999747378752e-05
8.515681111020967e-05,1.0,0.41363760828971863,0.9100000262260437,9.999999747378752e-05
8.939060353441164e-05,1.0,0.41369980573654175,0.9100000262260437,9.999999747378752e-05
0.0002736165770329535,1.0,0.4135076105594635,0.9100000262260437,9.999999747378752e-05
0.00012236628390382975,1.0,0.4136240780353546,0.9100000262260437,9.999999747378752e-05
0.00013358105206862092,1.0,0.41363129019737244,0.9100000262260437,9.999999747378752e-05
9.707814024295658e-05,1.0,0.41351914405822754,0.9100000262260437,9.999999747378752e-05
0.0001004525474854745,1.0,0.4134211242198944,0.9100000262260437,9.999999747378752e-05
0.00012420972052495927,1.0,0.41364991664886475,0.9100000262260437,9.999999747378752e-05
8.366359543288127e-05,1.0,0.4136417508125305,0.9100000262260437,9.999999747378752e-05
8.245920616900548e-05,1.0,0.41366058588027954,0.9100000262260437,9.999999747378752e-05
7.809307135175914e-05,1.0,0.41375532746315,0.9100000262260437,9.999999747378752e-05
7.673062646063045e-05,1.0,0.4138832986354828,0.9100000262260437,9.999999747378752e-05
9.532050171401352e-05,1.0,0.41419151425361633,0.9100000262260437,9.999999747378752e-05
0.00011707752128131688,1.0,0.41457855701446533,0.9100000262260437,9.999999747378752e-05
0.00016396486898884177,1.0,0.4149796664714813,0.9100000262260437,9.999999747378752e-05
9.618049807613716e-05,1.0,0.4150346517562866,0.9100000262260437,9.999999747378752e-05
8.058996900217608e-05,1.0,0.41526275873184204,0.9100000262260437,9.999999747378752e-05
9.80251279543154e-05,1.0,0.41528943181037903,0.9100000262260437,9.999999747378752e-05
9.861819125944749e-05,1.0,0.4153834879398346,0.9100000262260437,9.999999747378752e-05
0.00014032410399522632,1.0,0.4156886637210846,0.9100000262260437,9.999999747378752e-05
8.261097536887974e-05,1.0,0.41578418016433716,0.9100000262260437,9.999999747378752e-05
7.786651258356869e-05,1.0,0.41593533754348755,0.9100000262260437,9.999999747378752e-05
8.001886453712359e-05,1.0,0.41608697175979614,0.9100000262260437,9.999999747378752e-05
0.00011924454156542197,1.0,0.41640183329582214,0.9100000262260437,9.999999747378752e-05
0.00011939037358388305,1.0,0.4167865812778473,0.9100000262260437,9.999999747378752e-05
8.115576929412782e-05,1.0,0.4170683026313782,0.9100000262260437,9.999999747378752e-05
7.753152021905407e-05,1.0,0.4173450469970703,0.9100000262260437,9.999999747378752e-05
7.686531898798421e-05,1.0,0.4175751507282257,0.9100000262260437,9.999999747378752e-05
7.897259638411924e-05,1.0,0.41776373982429504,0.9100000262260437,9.999999747378752e-05
7.547550194431096e-05,1.0,0.41790592670440674,0.9100000262260437,9.999999747378752e-05
8.984648593468592e-05,1.0,0.4181623160839081,0.9200000166893005,9.999999747378752e-05
9.736997162690386e-05,1.0,0.41851580142974854,0.9200000166893005,9.999999747378752e-05
9.001286525744945e-05,1.0,0.4187507927417755,0.9200000166893005,9.999999747378752e-05
8.240393071901053e-05,1.0,0.418878972530365,0.9200000166893005,9.999999747378752e-05
0.00012628994591068476,1.0,0.41912978887557983,0.9200000166893005,9.999999747378752e-05
7.842994091333821e-05,1.0,0.41914331912994385,0.9200000166893005,9.999999747378752e-05
7.578298391308635e-05,1.0,0.4192020297050476,0.9200000166893005,9.999999747378752e-05
8.154832175932825e-05,1.0,0.41912102699279785,0.9200000166893005,9.999999747378752e-05
0.00012534558482002467,1.0,0.4189709722995758,0.9200000166893005,9.999999747378752e-05
7.486878894269466e-05,1.0,0.41904765367507935,0.9200000166893005,9.999999747378752e-05
7.720929716015235e-05,1.0,0.41916602849960327,0.9200000166893005,9.999999747378752e-05
7.849552639527246e-05,1.0,0.4193046987056732,0.9200000166893005,9.999999747378752e-05
7.323831232497469e-05,1.0,0.4193800985813141,0.9200000166893005,9.999999747378752e-05
0.00012097050785087049,1.0,0.4196118414402008,0.9200000166893005,9.999999747378752e-05
8.874608465703204e-05,1.0,0.4197610020637512,0.9200000166893005,9.999999747378752e-05
9.233611490344629e-05,1.0,0.4200085699558258,0.9200000166893005,9.999999747378752e-05
9.705738921184093e-05,1.0,0.4200097620487213,0.9200000166893005,9.999999747378752e-05
0.00017246503557544202,1.0,0.4199194312095642,0.9200000166893005,9.999999747378752e-05
7.378883310593665e-05,1.0,0.4201338291168213,0.9200000166893005,9.999999747378752e-05
0.00010054509766632691,1.0,0.42018866539001465,0.9200000166893005,9.999999747378752e-05
7.43431446608156e-05,1.0,0.4201969504356384,0.9200000166893005,9.999999747378752e-05
8.070046897046268e-05,1.0,0.42016297578811646,0.9200000166893005,9.999999747378752e-05
8.629087096778676e-05,1.0,0.4203295111656189,0.9100000262260437,9.999999747378752e-05
7.347539940383285e-05,1.0,0.4203466475009918,0.9100000262260437,9.999999747378752e-05
9.578031313139945e-05,1.0,0.42043131589889526,0.9100000262260437,9.999999747378752e-05
0.00012735063501168042,1.0,0.42052727937698364,0.9100000262260437,9.999999747378752e-05
7.919409108581021e-05,1.0,0.4203375279903412,0.9100000262260437,9.999999747378752e-05
0.00010996690980391577,1.0,0.4203406870365143,0.9100000262260437,9.999999747378752e-05
8.092907955870032e-05,1.0,0.4202510118484497,0.9100000262260437,9.999999747378752e-05
8.103188156383112e-05,1.0,0.4200519621372223,0.9200000166893005,9.999999747378752e-05
9.749452874530107e-05,1.0,0.41987717151641846,0.9200000166893005,9.999999747378752e-05
7.625007856404409e-05,1.0,0.4199780523777008,0.9200000166893005,9.999999747378752e-05
0.000120550837891642,1.0,0.4201120138168335,0.9200000166893005,9.999999747378752e-05
7.579114753752947e-05,1.0,0.42013654112815857,0.9200000166893005,9.999999747378752e-05
7.432041456922889e-05,1.0,0.4202030897140503,0.9200000166893005,9.999999747378752e-05
7.343364995904267e-05,1.0,0.42023220658302307,0.9200000166893005,9.999999747378752e-05
8.971487841336057e-05,1.0,0.42046818137168884,0.9200000166893005,9.999999747378752e-05
8.985895692603663e-05,1.0,0.42066314816474915,0.9200000166893005,9.999999747378752e-05
7.524532702518627e-05,1.0,0.4207955300807953,0.9200000166893005,9.999999747378752e-05
8.179156429832801e-05,1.0,0.42083922028541565,0.9200000166893005,9.999999747378752e-05
7.948611892061308e-05,1.0,0.4209063649177551,0.9200000166893005,9.999999747378752e-05
7.462310895789415e-05,1.0,0.4210420846939087,0.9200000166893005,9.999999747378752e-05
0.00015419079863931984,1.0,0.4209716320037842,0.9200000166893005,9.999999747378752e-05
7.50330655137077e-05,1.0,0.42115500569343567,0.9200000166893005,9.999999747378752e-05
7.98139808466658e-05,1.0,0.4212501645088196,0.9200000166893005,9.999999747378752e-05
7.604505663039163e-05,1.0,0.42136433720588684,0.9200000166893005,9.999999747378752e-05
7.104264659574255e-05,1.0,0.4214787185192108,0.9200000166893005,9.999999747378752e-05
0.00016618940571788698,1.0,0.421668142080307,0.9200000166893005,9.999999747378752e-05
0.00014912468031980097,1.0,0.42169174551963806,0.9200000166893005,9.999999747378752e-05
0.00016971569857560098,1.0,0.4217756986618042,0.9200000166893005,9.999999747378752e-05
7.591044413857162e-05,1.0,0.4216547906398773,0.9200000166893005,9.999999747378752e-05
7.340862066484988e-05,1.0,0.4214986562728882,0.9200000166893005,9.999999747378752e-05
0.00036052268114872277,1.0,0.42209869623184204,0.9100000262260437,9.999999747378752e-05
7.104976248228922e-05,1.0,0.42243844270706177,0.9100000262260437,9.999999747378752e-05
9.08479851204902e-05,1.0,0.4225902557373047,0.9100000262260437,9.999999747378752e-05
0.00017065778956748545,1.0,0.4229651689529419,0.9100000262260437,9.999999747378752e-05
0.0001680492568993941,1.0,0.4230602979660034,0.9100000262260437,9.999999747378752e-05
9.014199167722836e-05,1.0,0.4227173626422882,0.9100000262260437,9.999999747378752e-05
9.745737770572305e-05,1.0,0.4223434329032898,0.9100000262260437,9.999999747378752e-05
7.411755359498784e-05,1.0,0.4222087562084198,0.9100000262260437,9.999999747378752e-05
7.39448587410152e-05,1.0,0.42215821146965027,0.9100000262260437,9.999999747378752e-05
7.511754665756598e-05,1.0,0.42191994190216064,0.9100000262260437,9.999999747378752e-05
0.0001225007581524551,1.0,0.42165079712867737,0.9200000166893005,9.999999747378752e-05
9.989539830712602e-05,1.0,0.42138493061065674,0.9200000166893005,9.999999747378752e-05
0.00010026129893958569,1.0,0.42102769017219543,0.9200000166893005,9.999999747378752e-05
7.142518006730825e-05,1.0,0.4208203852176666,0.9200000166893005,9.999999747378752e-05
0.00011260274914093316,1.0,0.4207076132297516,0.9200000166893005,9.999999747378752e-05
7.543963874923065e-05,1.0,0.4203544557094574,0.9200000166893005,9.999999747378752e-05
9.004940511658788e-05,1.0,0.4199930429458618,0.9200000166893005,9.999999747378752e-05
7.495313911931589e-05,1.0,0.41982391476631165,0.9200000166893005,9.999999747378752e-05
7.349632505793124e-05,1.0,0.4196970462799072,0.9200000166893005,9.999999747378752e-05
7.096146873664111e-05,1.0,0.4196142852306366,0.9200000166893005,9.999999747378752e-05
9.254859469365329e-05,1.0,0.41962960362434387,0.9200000166893005,9.999999747378752e-05
0.00010951409785775468,1.0,0.41982200741767883,0.9200000166893005,9.999999747378752e-05
7.112127786967903e-05,1.0,0.41986083984375,0.9200000166893005,9.999999747378752e-05
7.055268361000344e-05,1.0,0.4198891520500183,0.9200000166893005,9.999999747378752e-05
7.637382805114612e-05,1.0,0.41987162828445435,0.9200000166893005,9.999999747378752e-05
0.00014657920110039413,1.0,0.4201015830039978,0.9200000166893005,9.999999747378752e-05
7.060751522658393e-05,1.0,0.420176237821579,0.9200000166893005,9.999999747378752e-05
8.720919140614569e-05,1.0,0.4202577471733093,0.9200000166893005,9.999999747378752e-05
7.702544098719954e-05,1.0,0.4202037751674652,0.9200000166893005,9.999999747378752e-05
6.985896470723674e-05,1.0,0.4202185869216919,0.9200000166893005,9.999999747378752e-05
7.413288403768092e-05,1.0,0.42031005024909973,0.9200000166893005,9.999999747378752e-05
8.099738624878228e-05,1.0,0.4204956889152527,0.9200000166893005,9.999999747378752e-05
6.989473331486806e-05,1.0,0.42061278223991394,0.9200000166893005,9.999999747378752e-05
8.629036892671138e-05,1.0,0.42061102390289307,0.9200000166893005,9.999999747378752e-05
0.00012318333028815687,1.0,0.42049071192741394,0.9200000166893005,9.999999747378752e-05
0.00010444880172144622,1.0,0.42050111293792725,0.9200000166893005,9.999999747378752e-05
7.182322588050738e-05,1.0,0.4204082489013672,0.9200000166893005,9.999999747378752e-05
9.104958007810637e-05,1.0,0.4201742112636566,0.9200000166893005,9.999999747378752e-05
9.498272265773267e-05,1.0,0.41999661922454834,0.9200000166893005,9.999999747378752e-05
7.119152724044397e-05,1.0,0.4200369119644165,0.9200000166893005,9.999999747378752e-05
7.058963819872588e-05,1.0,0.42006415128707886,0.9200000166893005,9.999999747378752e-05
0.00015875190729275346,1.0,0.4199736714363098,0.9200000166893005,9.999999747378752e-05
7.50769759179093e-05,1.0,0.420074462890625,0.9200000166893005,9.999999747378752e-05
6.904127076268196e-05,1.0,0.4200880527496338,0.9200000166893005,9.999999747378752e-05
8.522969437763095e-05,1.0,0.4202609956264496,0.9200000166893005,9.999999747378752e-05
0.00015767483273521066,1.0,0.42051464319229126,0.9200000166893005,9.999999747378752e-05
0.00015743248513899744,1.0,0.4205319881439209,0.9200000166893005,9.999999747378752e-05
8.586814510636032e-05,1.0,0.4204745888710022,0.9200000166893005,9.999999747378752e-05
0.0003106883086729795,1.0,0.419333279132843,0.9200000166893005,9.999999747378752e-05
7.286836626008153e-05,1.0,0.4178541600704193,0.9200000166893005,9.999999747378752e-05
7.028810796327889e-05,1.0,0.41679999232292175,0.9200000166893005,9.999999747378752e-05
9.040407894644886e-05,1.0,0.4158240556716919,0.9200000166893005,9.999999747378752e-05
7.213884236989543e-05,1.0,0.41536444425582886,0.9200000166893005,9.999999747378752e-05
7.608160376548767e-05,1.0,0.4148746430873871,0.9200000166893005,9.999999747378752e-05
0.0003212493611499667,1.0,0.4150209128856659,0.9200000166893005,9.999999747378752e-05
7.536180055467412e-05,1.0,0.4148484766483307,0.9200000166893005,9.999999747378752e-05
8.467544103041291e-05,1.0,0.4148929715156555,0.9200000166893005,9.999999747378752e-05
0.00015606402303092182,1.0,0.4149799048900604,0.9200000166893005,9.999999747378752e-05
6.827495963079855e-05,1.0,0.41479742527008057,0.9200000166893005,9.999999747378752e-05
0.00010980337538057938,1.0,0.41489073634147644,0.9200000166893005,9.999999747378752e-05
0.00012411002535372972,1.0,0.4150274693965912,0.9200000166893005,9.999999747378752e-05
7.289095810847357e-05,1.0,0.4149925708770752,0.9200000166893005,9.999999747378752e-05
9.082607721211389e-05,1.0,0.4149359166622162,0.9200000166893005,9.999999747378752e-05
0.00011515151709318161,1.0,0.4150685966014862,0.9200000166893005,9.999999747378752e-05
6.745120481355116e-05,1.0,0.4154371917247772,0.9200000166893005,9.999999747378752e-05
9.069778025150299e-05,1.0,0.415620356798172,0.9100000262260437,9.999999747378752e-05
0.00011841190280392766,1.0,0.4156838655471802,0.9100000262260437,9.999999747378752e-05
7.107920100679621e-05,1.0,0.4159698486328125,0.9100000262260437,9.999999747378752e-05
9.848603804130107e-05,1.0,0.41641587018966675,0.9200000166893005,9.999999747378752e-05
0.0001130324526457116,1.0,0.4165755808353424,0.9200000166893005,9.999999747378752e-05
6.806617602705956e-05,1.0,0.41685962677001953,0.9200000166893005,9.999999747378752e-05
8.963795698946342e-05,1.0,0.41697388887405396,0.9200000166893005,9.999999747378752e-05
7.284707680810243e-05,1.0,0.4171942472457886,0.9200000166893005,9.999999747378752e-05
6.819722329964861e-05,1.0,0.4174504578113556,0.9200000166893005,9.999999747378752e-05
0.00011384455137886107,1.0,0.4175446033477783,0.9200000166893005,9.999999747378752e-05
6.697679782519117e-05,1.0,0.4177364408969879,0.9200000166893005,9.999999747378752e-05
6.736533396178856e-05,1.0,0.4179837703704834,0.9200000166893005,9.999999747378752e-05
7.168816227931529e-05,1.0,0.4183027744293213,0.9200000166893005,9.999999747378752e-05
6.640223000431433e-05,1.0,0.41852787137031555,0.9200000166893005,9.999999747378752e-05
7.322538294829428e-05,1.0,0.4186473786830902,0.9200000166893005,9.999999747378752e-05
7.143468246795237e-05,1.0,0.4188951849937439,0.9200000166893005,9.999999747378752e-05
6.846772885182872e-05,1.0,0.41908180713653564,0.9200000166893005,9.999999747378752e-05
0.0001595706125954166,1.0,0.41905781626701355,0.9200000166893005,9.999999747378752e-05
8.56137994560413e-05,1.0,0.41902968287467957,0.9200000166893005,9.999999747378752e-05
0.00015691945736762136,1.0,0.4193946123123169,0.9200000166893005,9.999999747378752e-05
7.857289892854169e-05,1.0,0.41973280906677246,0.9200000166893005,9.999999747378752e-05
7.130453013814986e-05,1.0,0.41994574666023254,0.9200000166893005,9.999999747378752e-05
7.215188816189766e-05,1.0,0.42016369104385376,0.9200000166893005,9.999999747378752e-05
8.890941535355523e-05,1.0,0.42021429538726807,0.9200000166893005,9.999999747378752e-05
0.0004676271928474307,1.0,0.4204756021499634,0.9200000166893005,9.999999747378752e-05
7.379872113233432e-05,1.0,0.41985878348350525,0.9200000166893005,9.999999747378752e-05
9.227769623976201e-05,1.0,0.4193079471588135,0.9200000166893005,9.999999747378752e-05
8.777172479312867e-05,1.0,0.41877418756484985,0.9200000166893005,9.999999747378752e-05
8.135694952216e-05,1.0,0.4182578921318054,0.9100000262260437,9.999999747378752e-05
8.45608301460743e-05,1.0,0.4179379343986511,0.9100000262260437,9.999999747378752e-05
6.551892147399485e-05,1.0,0.41776204109191895,0.9100000262260437,9.999999747378752e-05
8.841028466122225e-05,1.0,0.4175892770290375,0.9100000262260437,9.999999747378752e-05
0.00011428475409047678,1.0,0.4175040125846863,0.9100000262260437,9.999999747378752e-05
8.54962709126994e-05,1.0,0.41762542724609375,0.9100000262260437,9.999999747378752e-05
0.00015349837485700846,1.0,0.4179691970348358,0.9100000262260437,9.999999747378752e-05
7.964184624142945e-05,1.0,0.4181614816188812,0.9100000262260437,9.999999747378752e-05
0.00014141116116661578,1.0,0.41815677285194397,0.9100000262260437,9.999999747378752e-05
0.0004742644086945802,1.0,0.4181919991970062,0.9100000262260437,9.999999747378752e-05
6.54999166727066e-05,1.0,0.41725173592567444,0.9200000166893005,9.999999747378752e-05
7.511053263442591e-05,1.0,0.41642898321151733,0.9200000166893005,9.999999747378752e-05
0.0001458754704799503,1.0,0.41616013646125793,0.9200000166893005,9.999999747378752e-05
7.092297892086208e-05,1.0,0.41574424505233765,0.9200000166893005,9.999999747378752e-05
6.517567817354575e-05,1.0,0.41547974944114685,0.9200000166893005,9.999999747378752e-05
7.338471914408728e-05,1.0,0.41521593928337097,0.9200000166893005,9.999999747378752e-05
6.586225936189294e-05,1.0,0.41518890857696533,0.9200000166893005,9.999999747378752e-05
8.12115176813677e-05,1.0,0.4151202440261841,0.9200000166893005,9.999999747378752e-05
6.521615432575345e-05,1.0,0.41531872749328613,0.9200000166893005,9.999999747378752e-05
8.047308801906183e-05,1.0,0.41547513008117676,0.9200000166893005,9.999999747378752e-05
7.592558540636674e-05,1.0,0.41569259762763977,0.9200000166893005,9.999999747378752e-05
8.969590271590278e-05,1.0,0.4157089591026306,0.9200000166893005,9.999999747378752e-05
7.976062624948099e-05,1.0,0.416006475687027,0.9200000166893005,9.999999747378752e-05
6.454397953348234e-05,1.0,0.41618460416793823,0.9200000166893005,9.999999747378752e-05
7.221232954179868e-05,1.0,0.416331946849823,0.9200000166893005,9.999999747378752e-05
6.526266952278093e-05,1.0,0.41651660203933716,0.9200000166893005,9.999999747378752e-05
6.927682989044115e-05,1.0,0.4167810082435608,0.9200000166893005,9.999999747378752e-05
6.731264147674665e-05,1.0,0.41705024242401123,0.9200000166893005,9.999999747378752e-05
0.00010753150127129629,1.0,0.41718265414237976,0.9200000166893005,9.999999747378752e-05
0.0001122265966841951,1.0,0.41745781898498535,0.9200000166893005,9.999999747378752e-05
7.117311179172248e-05,1.0,0.4173997640609741,0.9200000166893005,9.999999747378752e-05
8.107076428132132e-05,1.0,0.4173813760280609,0.9200000166893005,9.999999747378752e-05
7.05890852259472e-05,1.0,0.4174875020980835,0.9200000166893005,9.999999747378752e-05
6.31004513707012e-05,1.0,0.4176018536090851,0.9200000166893005,9.999999747378752e-05
0.0001710642100078985,1.0,0.4173368811607361,0.9200000166893005,9.999999747378752e-05
8.234095002990216e-05,1.0,0.4170893430709839,0.9200000166893005,9.999999747378752e-05
8.297185559058562e-05,1.0,0.4168929159641266,0.9200000166893005,9.999999747378752e-05
8.203318429877982e-05,1.0,0.4166333079338074,0.9200000166893005,9.999999747378752e-05
6.355225195875391e-05,1.0,0.41650840640068054,0.9200000166893005,9.999999747378752e-05
6.371663766913116e-05,1.0,0.41645535826683044,0.9200000166893005,9.999999747378752e-05
8.254362182924524e-05,1.0,0.41639602184295654,0.9200000166893005,9.999999747378752e-05
8.140774298226461e-05,1.0,0.4163282811641693,0.9200000166893005,9.999999747378752e-05
6.921726162545383e-05,1.0,0.4163942337036133,0.9200000166893005,9.999999747378752e-05
6.438900891225785e-05,1.0,0.41665658354759216,0.9200000166893005,9.999999747378752e-05
7.565007399534807e-05,1.0,0.4170224368572235,0.9200000166893005,9.999999747378752e-05
8.092128700809553e-05,1.0,0.41719600558280945,0.9200000166893005,9.999999747378752e-05
6.454629328800365e-05,1.0,0.4175262153148651,0.9200000166893005,9.999999747378752e-05
8.387730485992506e-05,1.0,0.4177098572254181,0.9200000166893005,9.999999747378752e-05
0.0001392939011566341,1.0,0.41831734776496887,0.9200000166893005,9.999999747378752e-05
6.318148371065035e-05,1.0,0.4186549484729767,0.9200000166893005,9.999999747378752e-05
0.00010086097609018907,1.0,0.4188571572303772,0.9200000166893005,9.999999747378752e-05
9.433287777937949e-05,1.0,0.41936004161834717,0.9200000166893005,9.999999747378752e-05
0.0001474062300985679,1.0,0.41952651739120483,0.9200000166893005,9.999999747378752e-05
6.818016845500097e-05,1.0,0.41979023814201355,0.9200000166893005,9.999999747378752e-05
8.213733235606924e-05,1.0,0.419905424118042,0.9200000166893005,9.999999747378752e-05
0.0001017996110022068,1.0,0.4199790954589844,0.9200000166893005,9.999999747378752e-05
8.022188558243215e-05,1.0,0.42009255290031433,0.9200000166893005,9.999999747378752e-05
6.662379018962383e-05,1.0,0.42028144001960754,0.9200000166893005,9.999999747378752e-05
6.471659435192123e-05,1.0,0.4205026626586914,0.9200000166893005,9.999999747378752e-05
8.710462861927226e-05,1.0,0.4205283224582672,0.9200000166893005,9.999999747378752e-05
6.613151344936341e-05,1.0,0.4206469655036926,0.9200000166893005,9.999999747378752e-05
6.614104495383799e-05,1.0,0.4207913279533386,0.9200000166893005,9.999999747378752e-05
6.657347694272175e-05,1.0,0.4209250509738922,0.9200000166893005,9.999999747378752e-05
6.46868284093216e-05,1.0,0.4211295247077942,0.9200000166893005,9.999999747378752e-05
0.000238447668380104,1.0,0.42114612460136414,0.9200000166893005,9.999999747378752e-05
9.713348845252767e-05,1.0,0.4207310080528259,0.9200000166893005,9.999999747378752e-05
6.612790457438678e-05,1.0,0.42025649547576904,0.9200000166893005,9.999999747378752e-05
6.159374606795609e-05,1.0,0.41985875368118286,0.9200000166893005,9.999999747378752e-05
9.844063606578857e-05,1.0,0.4195113480091095,0.9200000166893005,9.999999747378752e-05
8.439153316430748e-05,1.0,0.41930511593818665,0.9200000166893005,9.999999747378752e-05
6.643678352702409e-05,1.0,0.419098436832428,0.9200000166893005,9.999999747378752e-05
6.280942761804909e-05,1.0,0.4190271496772766,0.9200000166893005,9.999999747378752e-05
6.326114817056805e-05,1.0,0.4191199243068695,0.9200000166893005,9.999999747378752e-05
0.00019773967505898327,1.0,0.4189947545528412,0.9200000166893005,9.999999747378752e-05
6.209446291904896e-05,1.0,0.4190356135368347,0.9200000166893005,9.999999747378752e-05
9.330517787020653e-05,1.0,0.4192814528942108,0.9200000166893005,9.999999747378752e-05
7.364269549725577e-05,1.0,0.41938742995262146,0.9200000166893005,9.999999747378752e-05
6.771535117877647e-05,1.0,0.41942158341407776,0.9200000166893005,9.999999747378752e-05
8.065751171670854e-05,1.0,0.41945794224739075,0.9200000166893005,9.999999747378752e-05
6.156627932796255e-05,1.0,0.419435054063797,0.9200000166893005,9.999999747378752e-05
6.0062124248361215e-05,1.0,0.4194450378417969,0.9200000166893005,9.999999747378752e-05
7.524248212575912e-05,1.0,0.41968169808387756,0.9200000166893005,9.999999747378752e-05
6.374655640684068e-05,1.0,0.41990622878074646,0.9200000166893005,9.999999747378752e-05
6.089172893553041e-05,1.0,0.4200129210948944,0.9200000166893005,9.999999747378752e-05
8.041750697884709e-05,1.0,0.4200456738471985,0.9200000166893005,9.999999747378752e-05
6.382619176292792e-05,1.0,0.42028218507766724,0.9200000166893005,9.999999747378752e-05
0.0002623288019094616,1.0,0.41975975036621094,0.9200000166893005,9.999999747378752e-05
0.0003842010337393731,1.0,0.41898536682128906,0.9200000166893005,9.999999747378752e-05
5.968071491224691e-05,1.0,0.4177771508693695,0.9200000166893005,9.999999747378752e-05
5.929694452788681e-05,1.0,0.41695636510849,0.9200000166893005,9.999999747378752e-05
0.00014768264372833073,1.0,0.4166145622730255,0.9200000166893005,9.999999747378752e-05
6.0170626966282725e-05,1.0,0.4161447584629059,0.9200000166893005,9.999999747378752e-05
0.00021668465342372656,1.0,0.41568705439567566,0.9200000166893005,9.999999747378752e-05
6.448412023019046e-05,1.0,0.41558387875556946,0.9200000166893005,9.999999747378752e-05
6.123500497778878e-05,1.0,0.41572967171669006,0.9200000166893005,9.999999747378752e-05
0.00013577837671618909,1.0,0.415901780128479,0.9200000166893005,9.999999747378752e-05
0.00010299043788108975,1.0,0.4162026345729828,0.9200000166893005,9.999999747378752e-05
6.209451385075226e-05,1.0,0.4167324900627136,0.9200000166893005,9.999999747378752e-05
0.00010159427620237693,1.0,0.41736212372779846,0.9200000166893005,9.999999747378752e-05
6.419559213100001e-05,1.0,0.41773760318756104,0.9200000166893005,9.999999747378752e-05
6.19322745478712e-05,1.0,0.41815322637557983,0.9200000166893005,9.999999747378752e-05
7.887847459642217e-05,1.0,0.4184107184410095,0.9200000166893005,9.999999747378752e-05
6.423958257073537e-05,1.0,0.4187236726284027,0.9200000166893005,9.999999747378752e-05
0.00019914306176360697,1.0,0.4188847839832306,0.9200000166893005,9.999999747378752e-05
6.407895853044465e-05,1.0,0.4191337823867798,0.9200000166893005,9.999999747378752e-05
7.35473440727219e-05,1.0,0.4195280373096466,0.9200000166893005,9.999999747378752e-05
0.00019733639783225954,1.0,0.4197961390018463,0.9200000166893005,9.999999747378752e-05
5.946373858023435e-05,1.0,0.41959112882614136,0.9200000166893005,9.999999747378752e-05
6.249498255783692e-05,1.0,0.41962966322898865,0.9200000166893005,9.999999747378752e-05
0.00010216176451649517,1.0,0.41982436180114746,0.9200000166893005,9.999999747378752e-05
7.535392069257796e-05,1.0,0.4198739528656006,0.9200000166893005,9.999999747378752e-05
5.814537507831119e-05,1.0,0.4200473725795746,0.9100000262260437,9.999999747378752e-05
6.310747266979888e-05,1.0,0.42018333077430725,0.9100000262260437,9.999999747378752e-05
5.797496851300821e-05,1.0,0.4203672707080841,0.9100000262260437,9.999999747378752e-05
6.128853419795632e-05,1.0,0.420685350894928,0.9100000262260437,9.999999747378752e-05
7.46357036405243e-05,1.0,0.4210129678249359,0.9100000262260437,9.999999747378752e-05
8.08526310720481e-05,1.0,0.42111918330192566,0.9100000262260437,9.999999747378752e-05
6.236854824237525e-05,1.0,0.42116987705230713,0.9100000262260437,9.999999747378752e-05
6.142214988358319e-05,1.0,0.4212545156478882,0.9100000262260437,9.999999747378752e-05
7.250410271808505e-05,1.0,0.42135781049728394,0.9100000262260437,9.999999747378752e-05
7.075948815327138e-05,1.0,0.42157867550849915,0.9100000262260437,9.999999747378752e-05
7.128540892153978e-05,1.0,0.4219015836715698,0.9100000262260437,9.999999747378752e-05
0.0001536213094368577,1.0,0.42198458313941956,0.9100000262260437,9.999999747378752e-05
6.239605863811448e-05,1.0,0.4216454327106476,0.9100000262260437,9.999999747378752e-05
0.00019047413661610335,1.0,0.42150643467903137,0.9100000262260437,9.999999747378752e-05
0.0001275934191653505,1.0,0.4211789071559906,0.9100000262260437,9.999999747378752e-05
6.41665537841618e-05,1.0,0.42060279846191406,0.9100000262260437,9.999999747378752e-05
6.433441012632102e-05,1.0,0.42017626762390137,0.9100000262260437,9.999999747378752e-05
0.00014052509504836053,1.0,0.42017537355422974,0.9100000262260437,9.999999747378752e-05
7.382262265309691e-05,1.0,0.4199379086494446,0.9100000262260437,9.999999747378752e-05
6.329084862954915e-05,1.0,0.41985225677490234,0.9200000166893005,9.999999747378752e-05
0.00013558694627135992,1.0,0.41989684104919434,0.9200000166893005,9.999999747378752e-05
7.47188096283935e-05,1.0,0.41963452100753784,0.9200000166893005,9.999999747378752e-05
0.00012239931675139815,1.0,0.41982460021972656,0.9200000166893005,9.999999747378752e-05
5.879007585463114e-05,1.0,0.41996681690216064,0.9200000166893005,9.999999747378752e-05
7.862470374675468e-05,1.0,0.4198455810546875,0.9200000166893005,9.999999747378752e-05
5.65183290746063e-05,1.0,0.4198690354824066,0.9200000166893005,9.999999747378752e-05
7.134019688237458e-05,1.0,0.4198237359523773,0.9200000166893005,9.999999747378752e-05
7.68007812439464e-05,1.0,0.4197157323360443,0.9200000166893005,9.999999747378752e-05
7.551337330369279e-05,1.0,0.4196746051311493,0.9200000166893005,9.999999747378752e-05
9.693691390566528e-05,1.0,0.41966161131858826,0.9200000166893005,9.999999747378752e-05
7.331858068937436e-05,1.0,0.4197505712509155,0.9200000166893005,9.999999747378752e-05
5.9520873037399724e-05,1.0,0.4199981987476349,0.9200000166893005,9.999999747378752e-05
5.891777254873887e-05,1.0,0.4202488660812378,0.9200000166893005,9.999999747378752e-05
9.224107634508982e-05,1.0,0.42074283957481384,0.9200000166893005,9.999999747378752e-05
0.0001401809713570401,1.0,0.4209040701389313,0.9200000166893005,9.999999747378752e-05
5.857306678080931e-05,1.0,0.421093225479126,0.9200000166893005,9.999999747378752e-05
7.00323362252675e-05,1.0,0.4213823974132538,0.9200000166893005,9.999999747378752e-05
5.86937167099677e-05,1.0,0.42166605591773987,0.9200000166893005,9.999999747378752e-05
5.9174046327825636e-05,1.0,0.42198288440704346,0.9200000166893005,9.999999747378752e-05
5.9597176004899666e-05,1.0,0.4222690463066101,0.9200000166893005,9.999999747378752e-05
8.878804510459304e-05,1.0,0.42267197370529175,0.9200000166893005,9.999999747378752e-05
0.00020876243070233613,1.0,0.4231319725513458,0.9200000166893005,9.999999747378752e-05
7.543806714238599e-05,1.0,0.4230005741119385,0.9200000166893005,9.999999747378752e-05
9.559893078403547e-05,1.0,0.4228687286376953,0.9200000166893005,9.999999747378752e-05
5.899883763049729e-05,1.0,0.4229496717453003,0.9200000166893005,9.999999747378752e-05
5.643247641273774e-05,1.0,0.4231664538383484,0.9200000166893005,9.999999747378752e-05
0.0001015479865600355,1.0,0.4232541024684906,0.9200000166893005,9.999999747378752e-05
5.543842416955158e-05,1.0,0.4236084222793579,0.9200000166893005,9.999999747378752e-05
5.9247799072181806e-05,1.0,0.4239672124385834,0.9200000166893005,9.999999747378752e-05
7.041965727694333e-05,1.0,0.4244553744792938,0.9200000166893005,9.999999747378752e-05
6.278181535890326e-05,1.0,0.42469292879104614,0.9100000262260437,9.999999747378752e-05
5.825745756737888e-05,1.0,0.4249134957790375,0.9100000262260437,9.999999747378752e-05
5.995833271299489e-05,1.0,0.42508068680763245,0.9100000262260437,9.999999747378752e-05
6.016925908625126e-05,1.0,0.4253579080104828,0.9100000262260437,9.999999747378752e-05
6.746636790921912e-05,1.0,0.425596684217453,0.9100000262260437,9.999999747378752e-05
6.59406214253977e-05,1.0,0.4258209466934204,0.9100000262260437,9.999999747378752e-05
5.980799323879182e-05,1.0,0.42585891485214233,0.9100000262260437,9.999999747378752e-05
6.901549932081252e-05,1.0,0.4261811077594757,0.9100000262260437,9.999999747378752e-05
7.107951387297362e-05,1.0,0.42639392614364624,0.9100000262260437,9.999999747378752e-05
6.713491166010499e-05,1.0,0.42659446597099304,0.9100000262260437,9.999999747378752e-05
0.000188605539733544,1.0,0.4262939393520355,0.9200000166893005,9.999999747378752e-05
5.61427696084138e-05,1.0,0.42604681849479675,0.9200000166893005,9.999999747378752e-05
6.898718129377812e-05,1.0,0.4260472059249878,0.9200000166893005,9.999999747378752e-05
7.248948531923816e-05,1.0,0.42587992548942566,0.9200000166893005,9.999999747378752e-05
5.499257531482726e-05,1.0,0.4258387088775635,0.9200000166893005,9.999999747378752e-05
5.768412665929645e-05,1.0,0.4258120656013489,0.9200000166893005,9.999999747378752e-05
5.826694905408658e-05,1.0,0.4258286952972412,0.9200000166893005,9.999999747378752e-05
7.185964932432398e-05,1.0,0.4257334768772125,0.9200000166893005,9.999999747378752e-05
0.00013350980589166284,1.0,0.4255571663379669,0.9200000166893005,9.999999747378752e-05
5.795344623038545e-05,1.0,0.4256037771701813,0.9200000166893005,9.999999747378752e-05
5.826214328408241e-05,1.0,0.4255848824977875,0.9200000166893005,9.999999747378752e-05
6.666151602985337e-05,1.0,0.42559775710105896,0.9200000166893005,9.999999747378752e-05
6.934566044947132e-05,1.0,0.42553168535232544,0.9200000166893005,9.999999747378752e-05
5.627515565720387e-05,1.0,0.42571917176246643,0.9200000166893005,9.999999747378752e-05
7.013815775280818e-05,1.0,0.42588844895362854,0.9200000166893005,9.999999747378752e-05
7.173005724325776e-05,1.0,0.4260469377040863,0.9200000166893005,9.999999747378752e-05
5.377436536946334e-05,1.0,0.426054984331131,0.9200000166893005,9.999999747378752e-05
5.485187648446299e-05,1.0,0.4261118173599243,0.9200000166893005,9.999999747378752e-05
9.43928025662899e-05,1.0,0.4259980022907257,0.9200000166893005,9.999999747378752e-05
6.774985376978293e-05,1.0,0.4260121285915375,0.9200000166893005,9.999999747378752e-05
8.382521627936512e-05,1.0,0.42611443996429443,0.9200000166893005,9.999999747378752e-05
9.103742195293307e-05,1.0,0.4259403347969055,0.9200000166893005,9.999999747378752e-05
5.634885746985674e-05,1.0,0.42604830861091614,0.9200000166893005,9.999999747378752e-05
5.585184771916829e-05,1.0,0.4261486828327179,0.9200000166893005,9.999999747378752e-05
5.299842814565636e-05,1.0,0.42624396085739136,0.9200000166893005,9.999999747378752e-05
5.680056710843928e-05,1.0,0.4264659881591797,0.9200000166893005,9.999999747378752e-05
8.70081057655625e-05,1.0,0.4268139898777008,0.9200000166893005,9.999999747378752e-05
8.780559437582269e-05,1.0,0.42703574895858765,0.9200000166893005,9.999999747378752e-05
5.6594475609017536e-05,1.0,0.4273890256881714,0.9200000166893005,9.999999747378752e-05
5.2880375733366236e-05,1.0,0.42778733372688293,0.9200000166893005,9.999999747378752e-05
9.037031850311905e-05,1.0,0.42827242612838745,0.9200000166893005,9.999999747378752e-05
8.422927930951118e-05,1.0,0.42867806553840637,0.9100000262260437,9.999999747378752e-05
8.321855420945212e-05,1.0,0.428928941488266,0.9100000262260437,9.999999747378752e-05
6.741132528986782e-05,1.0,0.428864985704422,0.9100000262260437,9.999999747378752e-05
6.473306711995974e-05,1.0,0.4290509521961212,0.9100000262260437,9.999999747378752e-05
6.753773777745664e-05,1.0,0.4290482699871063,0.9100000262260437,9.999999747378752e-05
6.92491521476768e-05,1.0,0.42915722727775574,0.9100000262260437,9.999999747378752e-05
6.653540913248435e-05,1.0,0.4290185868740082,0.9100000262260437,9.999999747378752e-05
9.664118260843679e-05,1.0,0.428730845451355,0.9100000262260437,9.999999747378752e-05
5.6980792578542605e-05,1.0,0.42843636870384216,0.9200000166893005,9.999999747378752e-05
0.00019100881763733923,1.0,0.42792952060699463,0.9200000166893005,9.999999747378752e-05
5.6805416534189135e-05,1.0,0.42675280570983887,0.9200000166893005,9.999999747378752e-05
6.919496809132397e-05,1.0,0.425925612449646,0.9200000166893005,9.999999747378752e-05
8.528454054612666e-05,1.0,0.4253596365451813,0.9100000262260437,9.999999747378752e-05
6.505244527943432e-05,1.0,0.42465662956237793,0.9100000262260437,9.999999747378752e-05
9.340904944110662e-05,1.0,0.42407798767089844,0.9100000262260437,9.999999747378752e-05
0.00012485700426623225,1.0,0.42377331852912903,0.9100000262260437,9.999999747378752e-05
5.305078229866922e-05,1.0,0.42345061898231506,0.9100000262260437,9.999999747378752e-05
0.0001052527513820678,1.0,0.42285963892936707,0.9100000262260437,9.999999747378752e-05
5.7455123169347644e-05,1.0,0.4222605526447296,0.9200000166893005,9.999999747378752e-05
5.324030280462466e-05,1.0,0.42194491624832153,0.9200000166893005,9.999999747378752e-05
0.0002053968928521499,1.0,0.42146557569503784,0.9200000166893005,9.999999747378752e-05
0.0001261099096154794,1.0,0.42142146825790405,0.9200000166893005,9.999999747378752e-05
5.905058787902817e-05,1.0,0.4210745096206665,0.9200000166893005,9.999999747378752e-05
8.397895726375282e-05,1.0,0.4210914671421051,0.9200000166893005,9.999999747378752e-05
6.20333812548779e-05,1.0,0.4211454391479492,0.9200000166893005,9.999999747378752e-05
8.092164353001863e-05,1.0,0.42133021354675293,0.9200000166893005,9.999999747378752e-05
6.545879296027124e-05,1.0,0.4215157628059387,0.9200000166893005,9.999999747378752e-05
5.4451171308755875e-05,1.0,0.42171940207481384,0.9200000166893005,9.999999747378752e-05
5.7192646636394784e-05,1.0,0.42187491059303284,0.9200000166893005,9.999999747378752e-05
5.191710442886688e-05,1.0,0.4221184551715851,0.9200000166893005,9.999999747378752e-05
5.510093251359649e-05,1.0,0.4223357141017914,0.9200000166893005,9.999999747378752e-05
5.321655407897197e-05,1.0,0.42270535230636597,0.9200000166893005,9.999999747378752e-05
5.546666216105223e-05,1.0,0.42304638028144836,0.9200000166893005,9.999999747378752e-05
6.269951700232923e-05,1.0,0.42341774702072144,0.9200000166893005,9.999999747378752e-05
8.185370097635314e-05,1.0,0.42388492822647095,0.9200000166893005,9.999999747378752e-05
7.228493632283062e-05,1.0,0.42405402660369873,0.9200000166893005,9.999999747378752e-05
5.090165723231621e-05,1.0,0.42424190044403076,0.9200000166893005,9.999999747378752e-05
5.1317663746885955e-05,1.0,0.4244340658187866,0.9200000166893005,9.999999747378752e-05
5.066447920398787e-05,1.0,0.42472171783447266,0.9200000166893005,9.999999747378752e-05
6.394275260390714e-05,1.0,0.4251585304737091,0.9200000166893005,9.999999747378752e-05
5.1162689487682655e-05,1.0,0.42555320262908936,0.9200000166893005,9.999999747378752e-05
5.572407826548442e-05,1.0,0.4258073568344116,0.9200000166893005,9.999999747378752e-05
9.062715980689973e-05,1.0,0.42597487568855286,0.9200000166893005,9.999999747378752e-05
6.489403313025832e-05,1.0,0.42617174983024597,0.9200000166893005,9.999999747378752e-05
0.00020973302889615297,1.0,0.4266827404499054,0.9200000166893005,9.999999747378752e-05
0.00011802267545135692,1.0,0.4269072413444519,0.9200000166893005,9.999999747378752e-05
5.1732364227063954e-05,1.0,0.4269806742668152,0.9200000166893005,9.999999747378752e-05
8.305127994390205e-05,1.0,0.42705783247947693,0.9200000166893005,9.999999747378752e-05
0.0001112707905122079,1.0,0.4274730384349823,0.9200000166893005,9.999999747378752e-05
0.00012057129060849547,1.0,0.42771676182746887,0.9200000166893005,9.999999747378752e-05
5.530810813070275e-05,1.0,0.42759987711906433,0.9200000166893005,9.999999747378752e-05
9.528214286547154e-05,1.0,0.4272956848144531,0.9200000166893005,9.999999747378752e-05
0.00016244030848611146,1.0,0.4271199107170105,0.9200000166893005,9.999999747378752e-05
5.209475784795359e-05,1.0,0.4275813698768616,0.9200000166893005,9.999999747378752e-05
5.5297605285886675e-05,1.0,0.42787930369377136,0.9200000166893005,9.999999747378752e-05
5.510188202606514e-05,1.0,0.42819350957870483,0.9200000166893005,9.999999747378752e-05
0.00011895049101440236,1.0,0.4283193349838257,0.9200000166893005,9.999999747378752e-05
6.476943235611543e-05,1.0,0.42855629324913025,0.9200000166893005,9.999999747378752e-05
8.773068111622706e-05,1.0,0.4287571609020233,0.9100000262260437,9.999999747378752e-05
6.482094613602385e-05,1.0,0.4289723336696625,0.9100000262260437,9.999999747378752e-05
9.104417404159904e-05,1.0,0.42900019884109497,0.9100000262260437,9.999999747378752e-05
5.2199698984622955e-05,1.0,0.4290538728237152,0.9100000262260437,9.999999747378752e-05
4.902783621218987e-05,1.0,0.4292147159576416,0.9100000262260437,9.999999747378752e-05
8.970751514425501e-05,1.0,0.4290864169597626,0.9100000262260437,9.999999747378752e-05
6.212248263182119e-05,1.0,0.42906293272972107,0.9100000262260437,9.999999747378752e-05
4.933177842758596e-05,1.0,0.42918044328689575,0.9100000262260437,9.999999747378752e-05
4.9328231398249045e-05,1.0,0.42934367060661316,0.9100000262260437,9.999999747378752e-05
5.0047012337017804e-05,1.0,0.4296373128890991,0.9100000262260437,9.999999747378752e-05
5.385886106523685e-05,1.0,0.42975184321403503,0.9100000262260437,9.999999747378752e-05
9.023826714837924e-05,1.0,0.4299416244029999,0.9100000262260437,9.999999747378752e-05
6.622583896387368e-05,1.0,0.4298703074455261,0.9100000262260437,9.999999747378752e-05
6.306866998784244e-05,1.0,0.43009254336357117,0.9100000262260437,9.999999747378752e-05
7.562968676211312e-05,1.0,0.43039023876190186,0.9100000262260437,9.999999747378752e-05
5.251313996268436e-05,1.0,0.43043655157089233,0.9100000262260437,9.999999747378752e-05
5.380619768402539e-05,1.0,0.4305252730846405,0.9100000262260437,9.999999747378752e-05
5.155487815500237e-05,1.0,0.4307369291782379,0.9100000262260437,9.999999747378752e-05
5.256685471977107e-05,1.0,0.4308190941810608,0.9100000262260437,9.999999747378752e-05
4.821009861188941e-05,1.0,0.4310119152069092,0.9100000262260437,9.999999747378752e-05
6.422866135835648e-05,1.0,0.431285560131073,0.9100000262260437,9.999999747378752e-05
6.378506077453494e-05,1.0,0.4311866760253906,0.9100000262260437,9.999999747378752e-05
0.00011876151984324679,1.0,0.43103325366973877,0.9100000262260437,9.999999747378752e-05
5.2259303629398346e-05,1.0,0.43048542737960815,0.9100000262260437,9.999999747378752e-05
4.8428257287014276e-05,1.0,0.43020832538604736,0.9100000262260437,9.999999747378752e-05
5.2008788770763204e-05,1.0,0.4298514425754547,0.9100000262260437,9.999999747378752e-05
4.975488263880834e-05,1.0,0.4298017621040344,0.9100000262260437,9.999999747378752e-05
5.287188105285168e-05,1.0,0.4296457767486572,0.9100000262260437,9.999999747378752e-05
6.126917287474498e-05,1.0,0.4295078217983246,0.9100000262260437,9.999999747378752e-05
5.1122060540365055e-05,1.0,0.42959731817245483,0.9100000262260437,9.999999747378752e-05
4.778338552569039e-05,1.0,0.4295930564403534,0.9100000262260437,9.999999747378752e-05
0.00010892972932197154,1.0,0.42972293496131897,0.9100000262260437,9.999999747378752e-05
4.7845336666796356e-05,1.0,0.4296938180923462,0.9100000262260437,9.999999747378752e-05
6.006664625601843e-05,1.0,0.42981162667274475,0.9100000262260437,9.999999747378752e-05
5.128309931023978e-05,1.0,0.4297734797000885,0.9100000262260437,9.999999747378752e-05
7.702129369135946e-05,1.0,0.42995044589042664,0.9100000262260437,9.999999747378752e-05
4.930907016387209e-05,1.0,0.4299982190132141,0.9100000262260437,9.999999747378752e-05
5.160006548976526e-05,1.0,0.4300158619880676,0.9100000262260437,9.999999747378752e-05
0.00010420544276712462,1.0,0.4302632212638855,0.9100000262260437,9.999999747378752e-05
5.07062031829264e-05,1.0,0.43022382259368896,0.9100000262260437,9.999999747378752e-05
4.712416193797253e-05,1.0,0.4302745759487152,0.9100000262260437,9.999999747378752e-05
5.762415094068274e-05,1.0,0.4304179251194,0.9100000262260437,9.999999747378752e-05
4.724577229353599e-05,1.0,0.4304119944572449,0.9100000262260437,9.999999747378752e-05
4.717543561127968e-05,1.0,0.4305018484592438,0.9100000262260437,9.999999747378752e-05
6.188855331856757e-05,1.0,0.43061476945877075,0.9100000262260437,9.999999747378752e-05
5.683167910319753e-05,1.0,0.4306366443634033,0.9100000262260437,9.999999747378752e-05
6.158084579510614e-05,1.0,0.4305625259876251,0.9100000262260437,9.999999747378752e-05
8.053549390751868e-05,1.0,0.4304896891117096,0.9100000262260437,9.999999747378752e-05
5.9906826209044084e-05,1.0,0.43042778968811035,0.9100000262260437,9.999999747378752e-05
6.0524012951646e-05,1.0,0.4303918778896332,0.9100000262260437,9.999999747378752e-05
4.976445052307099e-05,1.0,0.4305621385574341,0.9100000262260437,9.999999747378752e-05
4.984548650099896e-05,1.0,0.43058153986930847,0.9100000262260437,9.999999747378752e-05
4.683566658059135e-05,1.0,0.4306574761867523,0.9100000262260437,9.999999747378752e-05
4.689413253800012e-05,1.0,0.43073344230651855,0.9100000262260437,9.999999747378752e-05
5.523213621927425e-05,1.0,0.4309786558151245,0.9100000262260437,9.999999747378752e-05
4.912077565677464e-05,1.0,0.431120902299881,0.9100000262260437,9.999999747378752e-05
4.650910705095157e-05,1.0,0.43116673827171326,0.9100000262260437,9.999999747378752e-05
5.672661427524872e-05,1.0,0.43137991428375244,0.9100000262260437,9.999999747378752e-05
4.985630221199244e-05,1.0,0.43146654963493347,0.9100000262260437,9.999999747378752e-05
0.00033024456934072077,1.0,0.42951929569244385,0.9100000262260437,9.999999747378752e-05
5.013861300540157e-05,1.0,0.42667555809020996,0.9100000262260437,9.999999747378752e-05
6.401862628990784e-05,1.0,0.42436036467552185,0.9100000262260437,9.999999747378752e-05
0.00016050305566750467,1.0,0.42254722118377686,0.9100000262260437,9.999999747378752e-05
4.648416143027134e-05,1.0,0.42151936888694763,0.9100000262260437,9.999999747378752e-05
5.1194801926612854e-05,1.0,0.42078354954719543,0.9100000262260437,9.999999747378752e-05
6.013438542140648e-05,1.0,0.4205166697502136,0.9100000262260437,9.999999747378752e-05
7.932203880045563e-05,1.0,0.42023780941963196,0.9100000262260437,9.999999747378752e-05
6.057561040506698e-05,1.0,0.42016366124153137,0.9100000262260437,9.999999747378752e-05
0.00016744821914471686,1.0,0.4209150969982147,0.9100000262260437,9.999999747378752e-05
7.60546899982728e-05,1.0,0.4215604364871979,0.9100000262260437,9.999999747378752e-05
4.688229819294065e-05,1.0,0.42202937602996826,0.9100000262260437,9.999999747378752e-05
6.485041376436129e-05,1.0,0.42241913080215454,0.9100000262260437,9.999999747378752e-05
5.696758671547286e-05,1.0,0.42313098907470703,0.9100000262260437,9.999999747378752e-05
4.5952525397296995e-05,1.0,0.42375069856643677,0.9100000262260437,9.999999747378752e-05
6.013755773892626e-05,1.0,0.42447584867477417,0.9100000262260437,9.999999747378752e-05
5.0193415518151596e-05,1.0,0.4250217080116272,0.9100000262260437,9.999999747378752e-05
4.881675340584479e-05,1.0,0.42569205164909363,0.9100000262260437,9.999999747378752e-05
4.9167327233590186e-05,1.0,0.42622435092926025,0.9100000262260437,9.999999747378752e-05
0.0002851732715498656,1.0,0.4269680380821228,0.9100000262260437,9.999999747378752e-05
4.990379238734022e-05,1.0,0.42684608697891235,0.9100000262260437,9.999999747378752e-05
4.697870826930739e-05,1.0,0.4269998073577881,0.9100000262260437,9.999999747378752e-05
4.760932642966509e-05,1.0,0.4272465109825134,0.9100000262260437,9.999999747378752e-05
4.59572474937886e-05,1.0,0.4275265634059906,0.9100000262260437,9.999999747378752e-05
8.745761442696676e-05,1.0,0.42770320177078247,0.9100000262260437,9.999999747378752e-05
6.0957867390243337e-05,1.0,0.4279843270778656,0.9100000262260437,9.999999747378752e-05
4.5361262891674414e-05,1.0,0.4284365177154541,0.9100000262260437,9.999999747378752e-05
4.647693640436046e-05,1.0,0.4288836717605591,0.9100000262260437,9.999999747378752e-05
5.8659890783019364e-05,1.0,0.42937737703323364,0.9100000262260437,9.999999747378752e-05
4.672251088777557e-05,1.0,0.4298868179321289,0.9100000262260437,9.999999747378752e-05
0.00022476294543594122,1.0,0.4298950135707855,0.9100000262260437,9.999999747378752e-05
4.6029967052163556e-05,1.0,0.4302085041999817,0.9100000262260437,9.999999747378752e-05
8.51455406518653e-05,1.0,0.43018588423728943,0.9100000262260437,9.999999747378752e-05
4.782857286045328e-05,1.0,0.43035823106765747,0.9100000262260437,9.999999747378752e-05
4.845666262554005e-05,1.0,0.4303935170173645,0.9100000262260437,9.999999747378752e-05
4.810763493878767e-05,1.0,0.43054333329200745,0.9100000262260437,9.999999747378752e-05
4.810161772184074e-05,1.0,0.4307204484939575,0.9100000262260437,9.999999747378752e-05
4.584397538565099e-05,1.0,0.4310755133628845,0.9100000262260437,9.999999747378752e-05
4.436471135704778e-05,1.0,0.4313400685787201,0.9100000262260437,9.999999747378752e-05
4.569975135382265e-05,1.0,0.4316382110118866,0.9100000262260437,9.999999747378752e-05
4.817901208298281e-05,1.0,0.43182533979415894,0.9100000262260437,9.999999747378752e-05
4.442192584974691e-05,1.0,0.43202129006385803,0.9100000262260437,9.999999747378752e-05
5.676853470504284e-05,1.0,0.43216052651405334,0.9100000262260437,9.999999747378752e-05
8.282480848720297e-05,1.0,0.43213820457458496,0.9100000262260437,9.999999747378752e-05
6.122442573541775e-05,1.0,0.43206268548965454,0.9100000262260437,9.999999747378752e-05
5.386580232880078e-05,1.0,0.43224963545799255,0.9100000262260437,9.999999747378752e-05
0.00017303806089330465,1.0,0.43236270546913147,0.9100000262260437,9.999999747378752e-05
4.4102442188886926e-05,1.0,0.4320421516895294,0.9100000262260437,9.999999747378752e-05
4.525391341303475e-05,1.0,0.431818425655365,0.9100000262260437,9.999999747378752e-05
4.396536314743571e-05,1.0,0.43164652585983276,0.9100000262260437,9.999999747378752e-05
5.338677146937698e-05,1.0,0.43159836530685425,0.9100000262260437,9.999999747378752e-05
4.69773804070428e-05,1.0,0.4315747022628784,0.9100000262260437,9.999999747378752e-05
5.451908509712666e-05,1.0,0.4316491186618805,0.9100000262260437,9.999999747378752e-05
4.34897665400058e-05,1.0,0.4316076338291168,0.9100000262260437,9.999999747378752e-05
0.00010372312681283802,1.0,0.43186596035957336,0.9100000262260437,9.999999747378752e-05
6.643252709181979e-05,1.0,0.43210121989250183,0.9100000262260437,9.999999747378752e-05
4.333836477599107e-05,1.0,0.43228310346603394,0.9100000262260437,9.999999747378752e-05
4.6826015022816136e-05,1.0,0.4323612153530121,0.9100000262260437,9.999999747378752e-05
4.524907853920013e-05,1.0,0.4325776994228363,0.9100000262260437,9.999999747378752e-05
7.118458597688004e-05,1.0,0.4329104721546173,0.9100000262260437,9.999999747378752e-05
4.488547710934654e-05,1.0,0.43297111988067627,0.9100000262260437,9.999999747378752e-05
0.00010582969844108447,1.0,0.43280601501464844,0.9100000262260437,9.999999747378752e-05
4.4538657675730065e-05,1.0,0.4328274130821228,0.9100000262260437,9.999999747378752e-05
4.7082165110623464e-05,1.0,0.4327397048473358,0.9100000262260437,9.999999747378752e-05
4.73899781354703e-05,1.0,0.4327069818973541,0.9100000262260437,9.999999747378752e-05
7.454434671672061e-05,1.0,0.4326859414577484,0.9100000262260437,9.999999747378752e-05
9.766995935933664e-05,1.0,0.4329681396484375,0.9100000262260437,9.999999747378752e-05
5.4622607422061265e-05,1.0,0.43302595615386963,0.9100000262260437,9.999999747378752e-05
4.494146924116649e-05,1.0,0.4329509735107422,0.9100000262260437,9.999999747378752e-05
5.598021743935533e-05,1.0,0.43271663784980774,0.9100000262260437,9.999999747378752e-05
0.0001728733186610043,1.0,0.43286123871803284,0.9100000262260437,9.999999747378752e-05
4.622780761565082e-05,1.0,0.4325190782546997,0.9100000262260437,9.999999747378752e-05
4.45636578660924e-05,1.0,0.43231192231178284,0.9100000262260437,9.999999747378752e-05
4.481993164517917e-05,1.0,0.43221062421798706,0.9100000262260437,9.999999747378752e-05
7.120081863831729e-05,1.0,0.432270884513855,0.9100000262260437,9.999999747378752e-05
4.497607733355835e-05,1.0,0.43206581473350525,0.9100000262260437,9.999999747378752e-05
4.522532981354743e-05,1.0,0.43190133571624756,0.9100000262260437,9.999999747378752e-05
5.3052790462970734e-05,1.0,0.43202173709869385,0.9100000262260437,9.999999747378752e-05
7.48203819966875e-05,1.0,0.4319344460964203,0.9100000262260437,9.999999747378752e-05
4.562822141451761e-05,1.0,0.4319020211696625,0.9100000262260437,9.999999747378752e-05
6.384029984474182e-05,1.0,0.4321744441986084,0.9100000262260437,9.999999747378752e-05
4.3083258788101375e-05,1.0,0.4321959614753723,0.9100000262260437,9.999999747378752e-05
4.3984418880427256e-05,1.0,0.4322272539138794,0.9100000262260437,9.999999747378752e-05
6.986132211750373e-05,1.0,0.43244388699531555,0.9100000262260437,9.999999747378752e-05
4.444219302968122e-05,1.0,0.4324585795402527,0.9100000262260437,9.999999747378752e-05
4.606915535987355e-05,1.0,0.432399719953537,0.9100000262260437,9.999999747378752e-05
7.103189273038879e-05,1.0,0.43260276317596436,0.9100000262260437,9.999999747378752e-05
4.579138112603687e-05,1.0,0.43256717920303345,0.9100000262260437,9.999999747378752e-05
4.4936794438399374e-05,1.0,0.4325673580169678,0.9100000262260437,9.999999747378752e-05
5.304325895849615e-05,1.0,0.4327835142612457,0.9100000262260437,9.999999747378752e-05
0.00010976361227221787,1.0,0.43263453245162964,0.9100000262260437,9.999999747378752e-05
4.1928215068764985e-05,1.0,0.4326365292072296,0.9100000262260437,9.999999747378752e-05
7.091854058671743e-05,1.0,0.43274253606796265,0.9100000262260437,9.999999747378752e-05
0.00010049279808299616,1.0,0.432400107383728,0.9100000262260437,9.999999747378752e-05
4.520145375863649e-05,1.0,0.43218719959259033,0.9100000262260437,9.999999747378752e-05
7.064476085361093e-05,1.0,0.4318135976791382,0.9100000262260437,9.999999747378752e-05
4.192102642264217e-05,1.0,0.43161308765411377,0.9100000262260437,9.999999747378752e-05
0.0001447403192287311,1.0,0.43152087926864624,0.9100000262260437,9.999999747378752e-05
7.262752478709444e-05,1.0,0.4316138029098511,0.9100000262260437,9.999999747378752e-05
5.230673559708521e-05,1.0,0.431917279958725,0.9100000262260437,9.999999747378752e-05
4.4875851017422974e-05,1.0,0.4320562779903412,0.9100000262260437,9.999999747378752e-05
4.551481470116414e-05,1.0,0.43212759494781494,0.9100000262260437,9.999999747378752e-05
4.230959166307002e-05,1.0,0.43228065967559814,0.9100000262260437,9.999999747378752e-05
5.4524709412362427e-05,1.0,0.4323027729988098,0.9100000262260437,9.999999747378752e-05
6.914146069902927e-05,1.0,0.4326823949813843,0.9100000262260437,9.999999747378752e-05
4.3109441321576014e-05,1.0,0.43291914463043213,0.9100000262260437,9.999999747378752e-05
4.163854828220792e-05,1.0,0.4330350160598755,0.9100000262260437,9.999999747378752e-05
4.582947076414712e-05,1.0,0.4330999255180359,0.9100000262260437,9.999999747378752e-05
4.301529406802729e-05,1.0,0.4332616329193115,0.9100000262260437,9.999999747378752e-05
4.1580162360332906e-05,1.0,0.43342921137809753,0.9100000262260437,9.999999747378752e-05
4.105206608073786e-05,1.0,0.43357276916503906,0.9100000262260437,9.999999747378752e-05
9.908724314300343e-05,1.0,0.4337448179721832,0.9100000262260437,9.999999747378752e-05
4.524180621956475e-05,1.0,0.43337470293045044,0.9100000262260437,9.999999747378752e-05
6.344442954286933e-05,1.0,0.43335190415382385,0.9100000262260437,9.999999747378752e-05
5.081084236735478e-05,1.0,0.4331824481487274,0.8999999761581421,9.999999747378752e-05
0.00014465407002717257,1.0,0.4331786036491394,0.8999999761581421,9.999999747378752e-05
9.13556941668503e-05,1.0,0.43275725841522217,0.8999999761581421,9.999999747378752e-05
4.287218689569272e-05,1.0,0.4326231777667999,0.8999999761581421,9.999999747378752e-05
4.17147675761953e-05,1.0,0.43244022130966187,0.9100000262260437,9.999999747378752e-05
5.203861655900255e-05,1.0,0.4323198199272156,0.9100000262260437,9.999999747378752e-05
4.330135925556533e-05,1.0,0.4322441816329956,0.9100000262260437,9.999999747378752e-05
4.2462212149985135e-05,1.0,0.4321780502796173,0.9100000262260437,9.999999747378752e-05
4.055495446664281e-05,1.0,0.43212974071502686,0.9100000262260437,9.999999747378752e-05
4.12510744354222e-05,1.0,0.43206366896629333,0.9100000262260437,9.999999747378752e-05
4.3086860387120396e-05,1.0,0.43204474449157715,0.9100000262260437,9.999999747378752e-05
4.285795148462057e-05,1.0,0.43211260437965393,0.9100000262260437,9.999999747378752e-05
4.039287523482926e-05,1.0,0.43217164278030396,0.9100000262260437,9.999999747378752e-05
4.7915487812133506e-05,1.0,0.4322400689125061,0.9100000262260437,9.999999747378752e-05
4.8485548177268356e-05,1.0,0.4321095645427704,0.9100000262260437,9.999999747378752e-05
4.5687371311942115e-05,1.0,0.4319009482860565,0.9100000262260437,9.999999747378752e-05
6.769801257178187e-05,1.0,0.43165138363838196,0.9100000262260437,9.999999747378752e-05
4.9046502681449056e-05,1.0,0.43153995275497437,0.9100000262260437,9.999999747378752e-05
0.00012677421909756958,1.0,0.43159499764442444,0.9100000262260437,9.999999747378752e-05
4.518203058978543e-05,1.0,0.43122416734695435,0.9100000262260437,9.999999747378752e-05
4.953427196596749e-05,1.0,0.43087631464004517,0.9100000262260437,9.999999747378752e-05
4.172905028099194e-05,1.0,0.4308035969734192,0.9100000262260437,9.999999747378752e-05
7.293918315554038e-05,1.0,0.4306364059448242,0.9100000262260437,9.999999747378752e-05
0.00011204110342077911,1.0,0.43078261613845825,0.9100000262260437,9.999999747378752e-05
4.9993108405033126e-05,1.0,0.430724173784256,0.9100000262260437,9.999999747378752e-05
4.887615796178579e-05,1.0,0.43074965476989746,0.9100000262260437,9.999999747378752e-05
4.396163785713725e-05,1.0,0.43067193031311035,0.9100000262260437,9.999999747378752e-05
4.312959936214611e-05,1.0,0.4307478070259094,0.9100000262260437,9.999999747378752e-05
4.0901912143453956e-05,1.0,0.43089255690574646,0.9100000262260437,9.999999747378752e-05
3.943690171581693e-05,1.0,0.43099114298820496,0.9100000262260437,9.999999747378752e-05
4.201981573714875e-05,1.0,0.4311790466308594,0.9100000262260437,9.999999747378752e-05
3.9693179132882506e-05,1.0,0.43140995502471924,0.9100000262260437,9.999999747378752e-05
6.062136162654497e-05,1.0,0.43152567744255066,0.9100000262260437,9.999999747378752e-05
4.1788713133428246e-05,1.0,0.4315320551395416,0.9100000262260437,9.999999747378752e-05
3.942615512642078e-05,1.0,0.4315167963504791,0.9100000262260437,9.999999747378752e-05
4.817292938241735e-05,1.0,0.43173521757125854,0.9100000262260437,9.999999747378752e-05
6.755092908861116e-05,1.0,0.4320935904979706,0.9100000262260437,9.999999747378752e-05
4.303433888708241e-05,1.0,0.43222224712371826,0.9100000262260437,9.999999747378752e-05
4.0085349610308185e-05,1.0,0.43241414427757263,0.9100000262260437,9.999999747378752e-05
3.904472032445483e-05,1.0,0.43261513113975525,0.9100000262260437,9.999999747378752e-05
6.947003566892818e-05,1.0,0.4325729012489319,0.9100000262260437,9.999999747378752e-05
5.173329191165976e-05,1.0,0.43252822756767273,0.9100000262260437,9.999999747378752e-05
0.00012786666047759354,1.0,0.433069109916687,0.9100000262260437,9.999999747378752e-05
4.292097582947463e-05,1.0,0.43339577317237854,0.9100000262260437,9.999999747378752e-05
4.184716090094298e-05,1.0,0.43359071016311646,0.9100000262260437,9.999999747378752e-05
4.332262687967159e-05,1.0,0.4337407648563385,0.9100000262260437,9.999999747378752e-05
4.984280894859694e-05,1.0,0.4339395761489868,0.9100000262260437,9.999999747378752e-05
3.8831323763588443e-05,1.0,0.4339970648288727,0.9100000262260437,9.999999747378752e-05
3.93307491322048e-05,1.0,0.43410980701446533,0.9100000262260437,9.999999747378752e-05
4.120944140595384e-05,1.0,0.434198796749115,0.9100000262260437,9.999999747378752e-05
7.975486369105056e-05,1.0,0.4340771734714508,0.9100000262260437,9.999999747378752e-05
4.091615483048372e-05,1.0,0.4339905083179474,0.9100000262260437,9.999999747378752e-05
4.933373202220537e-05,1.0,0.43389853835105896,0.9100000262260437,9.999999747378752e-05
6.9964567956049e-05,1.0,0.43352600932121277,0.9100000262260437,9.999999747378752e-05
4.0610990254208446e-05,1.0,0.43352141976356506,0.9100000262260437,9.999999747378752e-05
4.176722723059356e-05,1.0,0.43350356817245483,0.9100000262260437,9.999999747378752e-05
4.819683817913756e-05,1.0,0.4335194528102875,0.9100000262260437,9.999999747378752e-05
5.1457740482874215e-05,1.0,0.4333953559398651,0.9100000262260437,9.999999747378752e-05
3.97396543121431e-05,1.0,0.43344905972480774,0.9100000262260437,9.999999747378752e-05
5.100485941511579e-05,1.0,0.43341735005378723,0.9100000262260437,9.999999747378752e-05
4.2918465624097735e-05,1.0,0.4335096478462219,0.9100000262260437,9.999999747378752e-05
3.838908378384076e-05,1.0,0.4336347281932831,0.9100000262260437,9.999999747378752e-05
6.779658724553883e-05,1.0,0.4335871636867523,0.9100000262260437,9.999999747378752e-05
6.966049841139466e-05,1.0,0.4335375130176544,0.9100000262260437,9.999999747378752e-05
3.835331153823063e-05,1.0,0.43365538120269775,0.9100000262260437,9.999999747378752e-05
4.036537939100526e-05,1.0,0.433937668800354,0.9100000262260437,9.999999747378752e-05
0.00015487040218431503,1.0,0.4342297315597534,0.9100000262260437,9.999999747378752e-05
4.0968610846903175e-05,1.0,0.4340047836303711,0.9100000262260437,9.999999747378752e-05
3.792063216678798e-05,1.0,0.43377184867858887,0.9100000262260437,9.999999747378752e-05
4.0043545595835894e-05,1.0,0.433663547039032,0.9100000262260437,9.999999747378752e-05
3.8092275644885376e-05,1.0,0.43361523747444153,0.9100000262260437,9.999999747378752e-05
4.8250491090584546e-05,1.0,0.4337756335735321,0.9100000262260437,9.999999747378752e-05
6.619097985094413e-05,1.0,0.4338914453983307,0.9100000262260437,9.999999747378752e-05
3.757734157261439e-05,1.0,0.43384769558906555,0.9100000262260437,9.999999747378752e-05
4.669242480304092e-05,1.0,0.4340207576751709,0.9100000262260437,9.999999747378752e-05
6.434648094000295e-05,1.0,0.43420732021331787,0.9100000262260437,9.999999747378752e-05
5.8163794165011495e-05,1.0,0.434000700712204,0.9100000262260437,9.999999747378752e-05
4.6412373194471e-05,1.0,0.4339204430580139,0.9100000262260437,9.999999747378752e-05
3.9993497921386734e-05,1.0,0.43365705013275146,0.9100000262260437,9.999999747378752e-05
3.9045862649800256e-05,1.0,0.43359529972076416,0.9100000262260437,9.999999747378752e-05
4.778066067956388e-05,1.0,0.43362101912498474,0.9100000262260437,9.999999747378752e-05
6.345719884848222e-05,1.0,0.4337882101535797,0.9100000262260437,9.999999747378752e-05
3.754276258405298e-05,1.0,0.4338952600955963,0.9100000262260437,9.999999747378752e-05
3.727216608240269e-05,1.0,0.4340403079986572,0.9100000262260437,9.999999747378752e-05
4.0055441786535084e-05,1.0,0.434301495552063,0.9100000262260437,9.999999747378752e-05
9.637717448640615e-05,1.0,0.43438979983329773,0.9100000262260437,9.999999747378752e-05
3.746169386431575e-05,1.0,0.43407127261161804,0.9100000262260437,9.999999747378752e-05
3.862151788780466e-05,1.0,0.4339696764945984,0.9100000262260437,9.999999747378752e-05
3.920910967281088e-05,1.0,0.43392738699913025,0.9100000262260437,9.999999747378752e-05
4.1423812945140526e-05,1.0,0.43386614322662354,0.9100000262260437,9.999999747378752e-05
3.975629442720674e-05,1.0,0.4338892996311188,0.9100000262260437,9.999999747378752e-05
3.8849153497722e-05,1.0,0.4340583086013794,0.9100000262260437,9.999999747378752e-05
5.300418342812918e-05,1.0,0.4340471625328064,0.9100000262260437,9.999999747378752e-05
4.265835013939068e-05,1.0,0.43412190675735474,0.9100000262260437,9.999999747378752e-05
0.00034349889028817415,1.0,0.43374577164649963,0.9100000262260437,9.999999747378752e-05
6.795658555347472e-05,1.0,0.4323616325855255,0.9100000262260437,9.999999747378752e-05
4.692611764767207e-05,1.0,0.43170925974845886,0.9100000262260437,9.999999747378752e-05
5.024543861509301e-05,1.0,0.4311448335647583,0.9200000166893005,9.999999747378752e-05
4.574243939714506e-05,1.0,0.43106210231781006,0.9200000166893005,9.999999747378752e-05
4.595944483298808e-05,1.0,0.43111374974250793,0.9200000166893005,9.999999747378752e-05
5.047071317676455e-05,1.0,0.43107903003692627,0.9200000166893005,9.999999747378752e-05
4.59451403003186e-05,1.0,0.4314206838607788,0.9200000166893005,9.999999747378752e-05
9.119808964896947e-05,1.0,0.43133896589279175,0.9200000166893005,9.999999747378752e-05
3.820428537437692e-05,1.0,0.43135106563568115,0.9200000166893005,9.999999747378752e-05
4.957433702656999e-05,1.0,0.4314540922641754,0.9200000166893005,9.999999747378752e-05
3.68597247870639e-05,1.0,0.43149489164352417,0.9200000166893005,9.999999747378752e-05
3.744975765584968e-05,1.0,0.4315188229084015,0.9200000166893005,9.999999747378752e-05
3.9463051507482305e-05,1.0,0.43171173334121704,0.9200000166893005,9.999999747378752e-05
9.516989666735753e-05,1.0,0.43158069252967834,0.9200000166893005,9.999999747378752e-05
5.004613194614649e-05,1.0,0.431591272354126,0.9200000166893005,9.999999747378752e-05
3.683706381707452e-05,1.0,0.4317415952682495,0.9200000166893005,9.999999747378752e-05
3.635669418144971e-05,1.0,0.43199869990348816,0.9200000166893005,9.999999747378752e-05
5.877552030142397e-05,1.0,0.4325946569442749,0.9100000262260437,9.999999747378752e-05
6.576681334991008e-05,1.0,0.4330796003341675,0.9100000262260437,9.999999747378752e-05
4.5960481656948105e-05,1.0,0.43344247341156006,0.9100000262260437,9.999999747378752e-05
3.867993291351013e-05,1.0,0.43367987871170044,0.9100000262260437,9.999999747378752e-05
0.00010195490176556632,1.0,0.43386387825012207,0.9100000262260437,9.999999747378752e-05
4.771277599502355e-05,1.0,0.4333754777908325,0.9100000262260437,9.999999747378752e-05
3.696458588819951e-05,1.0,0.43307793140411377,0.9100000262260437,9.999999747378752e-05
3.787526657106355e-05,1.0,0.4329651892185211,0.9100000262260437,9.999999747378752e-05
3.7119512853678316e-05,1.0,0.4329260289669037,0.9100000262260437,9.999999747378752e-05
3.619809649535455e-05,1.0,0.4329608678817749,0.9200000166893005,9.999999747378752e-05
3.82960461138282e-05,1.0,0.4330856204032898,0.9100000262260437,9.999999747378752e-05
3.6341167287901044e-05,1.0,0.43324020504951477,0.9100000262260437,9.999999747378752e-05
6.304059934336692e-05,1.0,0.4334924817085266,0.9100000262260437,9.999999747378752e-05
4.370530223241076e-05,1.0,0.43378064036369324,0.9100000262260437,9.999999747378752e-05
8.649226947454736e-05,1.0,0.4340932369232178,0.9100000262260437,9.999999747378752e-05
6.283570837695152e-05,1.0,0.4339779317378998,0.9200000166893005,9.999999747378752e-05
3.83878214051947e-05,1.0,0.43421539664268494,0.9200000166893005,9.999999747378752e-05
4.7241526772268116e-05,1.0,0.43429553508758545,0.9200000166893005,9.999999747378752e-05
4.62978205177933e-05,1.0,0.43452945351600647,0.9200000166893005,9.999999747378752e-05
3.919365190085955e-05,1.0,0.4346576929092407,0.9200000166893005,9.999999747378752e-05
4.520945731201209e-05,1.0,0.43491795659065247,0.9100000262260437,9.999999747378752e-05
3.6224344512447715e-05,1.0,0.4350360929965973,0.9100000262260437,9.999999747378752e-05
4.0238835936179385e-05,1.0,0.435087651014328,0.9100000262260437,9.999999747378752e-05
0.00018680583161767572,1.0,0.43594032526016235,0.9100000262260437,9.999999747378752e-05
3.786431989283301e-05,1.0,0.4366264343261719,0.9100000262260437,9.999999747378752e-05
3.675957123050466e-05,1.0,0.4371008276939392,0.9100000262260437,9.999999747378752e-05
3.748061499209143e-05,1.0,0.43757304549217224,0.9100000262260437,9.999999747378752e-05
0.00012199480261188,1.0,0.4377814531326294,0.9100000262260437,9.999999747378752e-05
4.4301246816758066e-05,1.0,0.4381311535835266,0.9100000262260437,9.999999747378752e-05
9.662890806794167e-05,1.0,0.4379548728466034,0.9100000262260437,9.999999747378752e-05
5.979521665722132e-05,1.0,0.43785300850868225,0.9100000262260437,9.999999747378752e-05
8.036463259486482e-05,1.0,0.4378623068332672,0.9100000262260437,9.999999747378752e-05
3.480705345282331e-05,1.0,0.43768274784088135,0.9100000262260437,9.999999747378752e-05
3.636263500084169e-05,1.0,0.4375968873500824,0.9100000262260437,9.999999747378752e-05
5.643066833727062e-05,1.0,0.43769118189811707,0.9100000262260437,9.999999747378752e-05
0.00013645825674757361,1.0,0.4381682276725769,0.9100000262260437,9.999999747378752e-05
3.8974198105279356e-05,1.0,0.43833306431770325,0.9100000262260437,9.999999747378752e-05
3.551033660187386e-05,1.0,0.4386422634124756,0.9100000262260437,9.999999747378752e-05
9.323274571215734e-05,1.0,0.4383358657360077,0.9100000262260437,9.999999747378752e-05
4.730129148811102e-05,1.0,0.4379282295703888,0.9100000262260437,9.999999747378752e-05
3.8280562876025215e-05,1.0,0.4376467764377594,0.9100000262260437,9.999999747378752e-05
4.610101677826606e-05,1.0,0.4374975562095642,0.9100000262260437,9.999999747378752e-05
4.7984038246795535e-05,1.0,0.4371147155761719,0.9100000262260437,9.999999747378752e-05
3.585244849091396e-05,1.0,0.437028706073761,0.9100000262260437,9.999999747378752e-05
3.73031034541782e-05,1.0,0.4368695020675659,0.9100000262260437,9.999999747378752e-05
4.227248427923769e-05,1.0,0.43701112270355225,0.9100000262260437,9.999999747378752e-05
4.295308099244721e-05,1.0,0.4371627867221832,0.9100000262260437,9.999999747378752e-05
3.6435281799640507e-05,1.0,0.4372815787792206,0.9100000262260437,9.999999747378752e-05
3.687518255901523e-05,1.0,0.43739473819732666,0.9100000262260437,9.999999747378752e-05
4.35742549598217e-05,1.0,0.43767982721328735,0.9100000262260437,9.999999747378752e-05
4.8894529754761606e-05,1.0,0.4376187026500702,0.9100000262260437,9.999999747378752e-05
3.472241951385513e-05,1.0,0.4376932382583618,0.9100000262260437,9.999999747378752e-05
3.6829893360845745e-05,1.0,0.4377341866493225,0.9100000262260437,9.999999747378752e-05
8.25642782729119e-05,1.0,0.43803587555885315,0.9100000262260437,9.999999747378752e-05
3.430876677157357e-05,1.0,0.43812742829322815,0.9100000262260437,9.999999747378752e-05
4.1870836867019534e-05,1.0,0.43838897347450256,0.9100000262260437,9.999999747378752e-05
0.000143034674692899,1.0,0.43754222989082336,0.9100000262260437,9.999999747378752e-05
4.282568261260167e-05,1.0,0.43665754795074463,0.9100000262260437,9.999999747378752e-05
9.040713484864682e-05,1.0,0.4358552098274231,0.9100000262260437,9.999999747378752e-05
3.453409590292722e-05,1.0,0.43471816182136536,0.9100000262260437,9.999999747378752e-05
4.170878673903644e-05,1.0,0.4341167211532593,0.9100000262260437,9.999999747378752e-05
8.701322803972289e-05,1.0,0.43342339992523193,0.9100000262260437,9.999999747378752e-05
3.404295785003342e-05,1.0,0.43312981724739075,0.9100000262260437,9.999999747378752e-05
6.718304939568043e-05,1.0,0.433097243309021,0.9100000262260437,9.999999747378752e-05
0.0001303421740885824,1.0,0.4324378967285156,0.9100000262260437,9.999999747378752e-05
3.4056058211717755e-05,1.0,0.43201306462287903,0.9100000262260437,9.999999747378752e-05
7.569376612082124e-05,1.0,0.43202200531959534,0.9100000262260437,9.999999747378752e-05
4.188866660115309e-05,1.0,0.43210655450820923,0.9100000262260437,9.999999747378752e-05
3.490475864964537e-05,1.0,0.4322876036167145,0.9200000166893005,9.999999747378752e-05
4.2787632992258295e-05,1.0,0.4324737787246704,0.9200000166893005,9.999999747378752e-05
4.1254581446992233e-05,1.0,0.4329301118850708,0.9200000166893005,9.999999747378752e-05
4.489592902245931e-05,1.0,0.4331061840057373,0.9200000166893005,9.999999747378752e-05
4.1532330214977264e-05,1.0,0.4335569143295288,0.9100000262260437,9.999999747378752e-05
4.2271334677934647e-05,1.0,0.4340248107910156,0.9100000262260437,9.999999747378752e-05
3.451018710620701e-05,1.0,0.4343165159225464,0.9100000262260437,9.999999747378752e-05
3.3588759833946824e-05,1.0,0.4346504211425781,0.9100000262260437,9.999999747378752e-05
5.511294511961751e-05,1.0,0.4347808063030243,0.9100000262260437,9.999999747378752e-05
3.3270505809923634e-05,1.0,0.4348815083503723,0.9100000262260437,9.999999747378752e-05
3.4883265470853075e-05,1.0,0.4351791739463806,0.9100000262260437,9.999999747378752e-05
4.1784922359511256e-05,1.0,0.4355636239051819,0.9100000262260437,9.999999747378752e-05
4.3812273361254483e-05,1.0,0.4357932209968567,0.9100000262260437,9.999999747378752e-05
3.6302964872447774e-05,1.0,0.43610692024230957,0.9100000262260437,9.999999747378752e-05
3.3311032893834636e-05,1.0,0.43640872836112976,0.9100000262260437,9.999999747378752e-05
3.581659257179126e-05,1.0,0.4367164373397827,0.9100000262260437,9.999999747378752e-05
4.511858423938975e-05,1.0,0.4368721842765808,0.9100000262260437,9.999999747378752e-05
9.089854574995115e-05,1.0,0.4370734393596649,0.9100000262260437,9.999999747378752e-05
4.133193215238862e-05,1.0,0.43668133020401,0.9100000262260437,9.999999747378752e-05
3.6208759411238134e-05,1.0,0.43660250306129456,0.9100000262260437,9.999999747378752e-05
3.314174318802543e-05,1.0,0.4365396499633789,0.9100000262260437,9.999999747378752e-05
6.023849709890783e-05,1.0,0.4367334842681885,0.9100000262260437,9.999999747378752e-05
4.052981603308581e-05,1.0,0.4368227422237396,0.9100000262260437,9.999999747378752e-05
3.4344466257607564e-05,1.0,0.4369383156299591,0.9100000262260437,9.999999747378752e-05
3.3994048862950876e-05,1.0,0.437124639749527,0.9100000262260437,9.999999747378752e-05
7.759058644296601e-05,1.0,0.4375666677951813,0.9100000262260437,9.999999747378752e-05
4.370036913314834e-05,1.0,0.43765923380851746,0.9100000262260437,9.999999747378752e-05
3.2291864044964314e-05,1.0,0.4378843605518341,0.9100000262260437,9.999999747378752e-05
4.455614907783456e-05,1.0,0.4382692277431488,0.9100000262260437,9.999999747378752e-05
4.338936923886649e-05,1.0,0.4387078881263733,0.9100000262260437,9.999999747378752e-05
3.2523079426027834e-05,1.0,0.4390314817428589,0.9100000262260437,9.999999747378752e-05
3.423240559641272e-05,1.0,0.4393375515937805,0.9100000262260437,9.999999747378752e-05
3.273888069088571e-05,1.0,0.4397183358669281,0.9100000262260437,9.999999747378752e-05
3.594048030208796e-05,1.0,0.4400938153266907,0.9100000262260437,9.999999747378752e-05
5.918097303947434e-05,1.0,0.44031769037246704,0.9100000262260437,9.999999747378752e-05
3.4884480555774644e-05,1.0,0.4405207931995392,0.9100000262260437,9.999999747378752e-05
3.3177537261508405e-05,1.0,0.440900981426239,0.9100000262260437,9.999999747378752e-05
3.4985801903530955e-05,1.0,0.44118785858154297,0.9100000262260437,9.999999747378752e-05
4.3174550228286535e-05,1.0,0.4414047300815582,0.9100000262260437,9.999999747378752e-05
3.669252328108996e-05,1.0,0.44156670570373535,0.9100000262260437,9.999999747378752e-05
8.695815631654114e-05,1.0,0.44143742322921753,0.9100000262260437,9.999999747378752e-05
7.494869350921363e-05,1.0,0.4417666494846344,0.9100000262260437,9.999999747378752e-05
5.55293881916441e-05,1.0,0.44206297397613525,0.9100000262260437,9.999999747378752e-05
3.5201494029024616e-05,1.0,0.44191932678222656,0.9100000262260437,9.999999747378752e-05
3.8514179323101416e-05,1.0,0.44204166531562805,0.9100000262260437,9.999999747378752e-05
3.350176484673284e-05,1.0,0.4421282112598419,0.9100000262260437,9.999999747378752e-05
6.899581057950854e-05,1.0,0.44166117906570435,0.9100000262260437,9.999999747378752e-05
3.8287354982458055e-05,1.0,0.44099730253219604,0.9100000262260437,9.999999747378752e-05
6.351030606310815e-05,1.0,0.4403844475746155,0.9100000262260437,9.999999747378752e-05
4.3890777305932716e-05,1.0,0.439491868019104,0.9100000262260437,9.999999747378752e-05
3.218337587895803e-05,1.0,0.43890056014060974,0.9100000262260437,9.999999747378752e-05
8.22072324808687e-05,1.0,0.43817809224128723,0.9100000262260437,9.999999747378752e-05
3.199623461114243e-05,1.0,0.4377049207687378,0.9100000262260437,9.999999747378752e-05
4.2045900045195594e-05,1.0,0.4373372197151184,0.9100000262260437,9.999999747378752e-05
3.394993836991489e-05,1.0,0.43730828166007996,0.9100000262260437,9.999999747378752e-05
3.270186425652355e-05,1.0,0.4373212158679962,0.9100000262260437,9.999999747378752e-05
3.451975135249086e-05,1.0,0.43741488456726074,0.9100000262260437,9.999999747378752e-05
3.167438262607902e-05,1.0,0.4376600384712219,0.9100000262260437,9.999999747378752e-05
0.00011921481927856803,1.0,0.4380128085613251,0.9100000262260437,9.999999747378752e-05
3.124645445495844e-05,1.0,0.43782439827919006,0.9100000262260437,9.999999747378752e-05
3.188656774000265e-05,1.0,0.4377600848674774,0.9100000262260437,9.999999747378752e-05
0.00012220663484185934,1.0,0.43774649500846863,0.9100000262260437,9.999999747378752e-05
5.336393223842606e-05,1.0,0.43832337856292725,0.9100000262260437,9.999999747378752e-05
3.1475330615649e-05,1.0,0.43876105546951294,0.9100000262260437,9.999999747378752e-05
3.113677666988224e-05,1.0,0.43925514817237854,0.9100000262260437,9.999999747378752e-05
3.4616223274497315e-05,1.0,0.43964090943336487,0.9100000262260437,9.999999747378752e-05
4.573967453325167e-05,1.0,0.4399489462375641,0.9100000262260437,9.999999747378752e-05
4.1514289478072897e-05,1.0,0.44030702114105225,0.9100000262260437,9.999999747378752e-05
3.229059439036064e-05,1.0,0.4406370222568512,0.9100000262260437,9.999999747378752e-05
3.792167626670562e-05,1.0,0.441087007522583,0.9100000262260437,9.999999747378752e-05
5.798894926556386e-05,1.0,0.4415699243545532,0.9100000262260437,9.999999747378752e-05
4.360483944765292e-05,1.0,0.44163787364959717,0.9100000262260437,9.999999747378752e-05
8.811995212454349e-05,1.0,0.44171470403671265,0.9100000262260437,9.999999747378752e-05
4.2005394789157435e-05,1.0,0.44108203053474426,0.9100000262260437,9.999999747378752e-05
7.680316775804386e-05,1.0,0.440746009349823,0.9100000262260437,9.999999747378752e-05
3.102469418081455e-05,1.0,0.44022542238235474,0.9100000262260437,9.999999747378752e-05
3.2390744308941066e-05,1.0,0.4398871958255768,0.9100000262260437,9.999999747378752e-05
3.118204404017888e-05,1.0,0.4396910071372986,0.9100000262260437,9.999999747378752e-05
3.890627340297215e-05,1.0,0.4397130310535431,0.9100000262260437,9.999999747378752e-05
3.085424759774469e-05,1.0,0.4396822452545166,0.9100000262260437,9.999999747378752e-05
3.779290273087099e-05,1.0,0.43996018171310425,0.9100000262260437,9.999999747378752e-05
5.266170046525076e-05,1.0,0.4402867257595062,0.9100000262260437,9.999999747378752e-05
8.462322875857353e-05,1.0,0.4401402175426483,0.9100000262260437,9.999999747378752e-05
3.202598600182682e-05,1.0,0.44015899300575256,0.9100000262260437,9.999999747378752e-05
3.333121640025638e-05,1.0,0.44016486406326294,0.9100000262260437,9.999999747378752e-05
0.00012961927859578282,1.0,0.4398570954799652,0.9100000262260437,9.999999747378752e-05
3.861654477077536e-05,1.0,0.4397594928741455,0.9100000262260437,9.999999747378752e-05
5.045884245191701e-05,1.0,0.4397478401660919,0.9100000262260437,9.999999747378752e-05
3.226802800782025e-05,1.0,0.4396408200263977,0.9100000262260437,9.999999747378752e-05
3.4268097806489095e-05,1.0,0.43959563970565796,0.9100000262260437,9.999999747378752e-05
4.1832496208371595e-05,1.0,0.43949660658836365,0.9100000262260437,9.999999747378752e-05
3.3997479476965964e-05,1.0,0.43959808349609375,0.9100000262260437,9.999999747378752e-05
3.949501842726022e-05,1.0,0.43979087471961975,0.9100000262260437,9.999999747378752e-05
3.0137845897115767e-05,1.0,0.4399184286594391,0.9100000262260437,9.999999747378752e-05
3.2498061045771465e-05,1.0,0.44006726145744324,0.9100000262260437,9.999999747378752e-05
6.0154292441438884e-05,1.0,0.44011592864990234,0.9100000262260437,9.999999747378752e-05
3.203793312422931e-05,1.0,0.4401196241378784,0.9100000262260437,9.999999747378752e-05
3.305595237179659e-05,1.0,0.44023558497428894,0.9100000262260437,9.999999747378752e-05
3.2538500818191096e-05,1.0,0.440513014793396,0.9100000262260437,9.999999747378752e-05
7.561415986856446e-05,1.0,0.4406996965408325,0.9100000262260437,9.999999747378752e-05
3.0106855774647556e-05,1.0,0.4411357045173645,0.9100000262260437,9.999999747378752e-05
3.837358599412255e-05,1.0,0.44151949882507324,0.9100000262260437,9.999999747378752e-05
3.2702995667932555e-05,1.0,0.44191569089889526,0.9100000262260437,9.999999747378752e-05
5.05602583871223e-05,1.0,0.44263267517089844,0.9100000262260437,9.999999747378752e-05
5.118483750266023e-05,1.0,0.44331619143486023,0.9100000262260437,9.999999747378752e-05
3.127265881630592e-05,1.0,0.4437755346298218,0.9100000262260437,9.999999747378752e-05
2.9802886274410412e-05,1.0,0.44420742988586426,0.9100000262260437,9.999999747378752e-05
3.3469434129074216e-05,1.0,0.44450005888938904,0.9100000262260437,9.999999747378752e-05
3.1156992918113247e-05,1.0,0.4449138641357422,0.9100000262260437,9.999999747378752e-05
3.209516580682248e-05,1.0,0.44517752528190613,0.9100000262260437,9.999999747378752e-05
3.710751116159372e-05,1.0,0.44560277462005615,0.9100000262260437,9.999999747378752e-05
3.070283855777234e-05,1.0,0.44592294096946716,0.9100000262260437,9.999999747378752e-05
3.773925345740281e-05,1.0,0.44629162549972534,0.9100000262260437,9.999999747378752e-05
2.941665479738731e-05,1.0,0.4466664493083954,0.9100000262260437,9.999999747378752e-05
5.057264934293926e-05,1.0,0.44699013233184814,0.9100000262260437,9.999999747378752e-05
0.00011648138024611399,1.0,0.44666314125061035,0.9100000262260437,9.999999747378752e-05
4.773535692947917e-05,1.0,0.44679078459739685,0.9100000262260437,9.999999747378752e-05
3.087568256887607e-05,1.0,0.44674408435821533,0.9100000262260437,9.999999747378752e-05
0.0003679187211673707,1.0,0.44759801030158997,0.9100000262260437,9.999999747378752e-05
3.156944512738846e-05,1.0,0.44822895526885986,0.9100000262260437,9.999999747378752e-05
3.4755699743982404e-05,1.0,0.4489615261554718,0.9100000262260437,9.999999747378752e-05
5.396251435740851e-05,1.0,0.4491119384765625,0.9100000262260437,9.999999747378752e-05
2.9069748052279465e-05,1.0,0.44911205768585205,0.9100000262260437,9.999999747378752e-05
3.2043833925854415e-05,1.0,0.4491117596626282,0.9100000262260437,9.999999747378752e-05
3.695249688462354e-05,1.0,0.4489837884902954,0.9100000262260437,9.999999747378752e-05
4.985454143024981e-05,1.0,0.448624849319458,0.9100000262260437,9.999999747378752e-05
3.641373768914491e-05,1.0,0.44859182834625244,0.9100000262260437,9.999999747378752e-05
3.222492159693502e-05,1.0,0.44837814569473267,0.9100000262260437,9.999999747378752e-05
2.964905070257373e-05,1.0,0.4481768012046814,0.9100000262260437,9.999999747378752e-05
3.105806899839081e-05,1.0,0.44790467619895935,0.9100000262260437,9.999999747378752e-05
3.125472358078696e-05,1.0,0.44766783714294434,0.9100000262260437,9.999999747378752e-05
2.977896474476438e-05,1.0,0.4475002586841583,0.9100000262260437,9.999999747378752e-05
2.8888560336781666e-05,1.0,0.44738486409187317,0.9100000262260437,9.999999747378752e-05
3.670941077871248e-05,1.0,0.44738295674324036,0.9100000262260437,9.999999747378752e-05
4.909999552182853e-05,1.0,0.4473472237586975,0.9100000262260437,9.999999747378752e-05
3.8236306863836944e-05,1.0,0.44723427295684814,0.9100000262260437,9.999999747378752e-05
3.6550740333041176e-05,1.0,0.44693756103515625,0.9100000262260437,9.999999747378752e-05
5.490525654749945e-05,1.0,0.4462794363498688,0.9100000262260437,9.999999747378752e-05
0.00010755555558716878,1.0,0.4458399713039398,0.9100000262260437,9.999999747378752e-05
3.133465361315757e-05,1.0,0.4452594816684723,0.9100000262260437,9.999999747378752e-05
7.740311411907896e-05,1.0,0.4452499449253082,0.9100000262260437,9.999999747378752e-05
4.6660308726131916e-05,1.0,0.44503363966941833,0.9100000262260437,9.999999747378752e-05
2.9365332011366263e-05,1.0,0.4451112747192383,0.8999999761581421,9.999999747378752e-05
2.9943517802166753e-05,1.0,0.44514602422714233,0.8999999761581421,9.999999747378752e-05
5.326417158357799e-05,1.0,0.4449886381626129,0.8999999761581421,9.999999747378752e-05
3.835884854197502e-05,1.0,0.44497716426849365,0.8999999761581421,9.999999747378752e-05
3.914558328688145e-05,1.0,0.44499146938323975,0.8999999761581421,9.999999747378752e-05
3.002219818881713e-05,1.0,0.4451083242893219,0.8999999761581421,9.999999747378752e-05
3.9724829548504204e-05,1.0,0.4450319707393646,0.8999999761581421,9.999999747378752e-05
3.1581286748405546e-05,1.0,0.44496771693229675,0.8999999761581421,9.999999747378752e-05
2.9161548809497617e-05,1.0,0.4449760317802429,0.8999999761581421,9.999999747378752e-05
3.337146699777804e-05,1.0,0.4448343515396118,0.8999999761581421,9.999999747378752e-05
3.54875810444355e-05,1.0,0.444764643907547,0.8999999761581421,9.999999747378752e-05
4.954424730385654e-05,1.0,0.4444560706615448,0.8999999761581421,9.999999747378752e-05
3.0220056942198426e-05,1.0,0.444269061088562,0.9100000262260437,9.999999747378752e-05
7.304763130377978e-05,1.0,0.444321870803833,0.9100000262260437,9.999999747378752e-05
3.009843385370914e-05,1.0,0.444263756275177,0.9100000262260437,9.999999747378752e-05
5.25953910255339e-05,1.0,0.4441359043121338,0.9100000262260437,9.999999747378752e-05
3.968669261666946e-05,1.0,0.4439832270145416,0.9100000262260437,9.999999747378752e-05
3.637558620539494e-05,1.0,0.4438386857509613,0.9100000262260437,9.999999747378752e-05
3.589172411011532e-05,1.0,0.44383180141448975,0.9100000262260437,9.999999747378752e-05
4.785427518072538e-05,1.0,0.4441370368003845,0.9100000262260437,9.999999747378752e-05
